simulated data
number of E (V), I (A) couples: 400
0.495	5.864966E-012
0.49	1.5491242E-012
0.485	3.3304486E-012
0.48	3.6634824E-012
0.475	4.1929479E-012
0.47	4.9628789E-012
0.465	5.9515071E-012
0.46	7.1706042E-012
0.455	8.6580737E-012
0.45	1.0468443E-011
0.445	1.2669976E-011
0.44	1.5346667E-011
0.435	1.8599123E-011
0.43	2.2547315E-011
0.425	2.7337294E-011
0.42	3.3147523E-011
0.415	4.0193716E-011
0.41	4.8735762E-011
0.405	5.9087825E-011
0.4	7.1629942E-011
0.395	8.6820951E-011
0.39	1.0521416E-010
0.385	1.2747658E-010
0.38	1.5441184E-010
0.375	1.8698733E-010
0.37	2.2636637E-010
0.365	2.7394665E-010
0.36	3.3140561E-010
0.355	4.0075423E-010
0.35	4.8440027E-010
0.345	5.8522269E-010
0.34	7.0665897E-010
0.335	8.5280695E-010
0.33	1.0285435E-009
0.325	1.2396623E-009
0.32	1.4930326E-009
0.315	1.7967822E-009
0.31	2.1605071E-009
0.305	2.59551E-009
0.3	3.1150706E-009
0.295	3.7347513E-009
0.29	4.4727387E-009
0.285	5.3502254E-009
0.28	6.3918325E-009
0.275	7.6260748E-009
0.27	9.0858702E-009
0.265	1.0809093E-008
0.26	1.2839174E-008
0.255	1.522574E-008
0.25	1.8025307E-008
0.245	2.1302002E-008
0.24	2.5128343E-008
0.235	2.9586051E-008
0.23	3.4766909E-008
0.225	4.0773659E-008
0.22	4.7720958E-008
0.215	5.5736368E-008
0.21	6.4961422E-008
0.205	7.5552738E-008
0.2	8.768323E-008
0.195	1.0154339E-007
0.19	1.173427E-007
0.185	1.3531116E-007
0.18	1.5570097E-007
0.175	1.7878838E-007
0.17	2.0487576E-007
0.165	2.3429387E-007
0.16	2.6740445E-007
0.155	3.0460302E-007
0.15	3.4632206E-007
0.145	3.9303454E-007
0.14	4.4525786E-007
0.135	5.0355815E-007
0.13	5.6855513E-007
0.125	6.4092741E-007
0.12	7.2141835E-007
0.115	8.1084254E-007
0.11	9.1009286E-007
0.105	1.0201482E-006
0.1	1.142082E-006
0.095	1.2770713E-006
0.09	1.4264072E-006
0.085	1.5915053E-006
0.08	1.7739175E-006
0.075	1.9753454E-006
0.07	2.1976531E-006
0.065	2.4428828E-006
0.06	2.7132701E-006
0.055	3.0112611E-006
0.05	3.3395305E-006
0.045	3.701E-006
0.04	4.0988592E-006
0.035	4.5365857E-006
0.03	5.0179671E-006
0.025	5.5471235E-006
0.02	6.1285297E-006
0.015	6.7670381E-006
0.01	7.4679012E-006
0.005	8.2367922E-006
-3.76435E-016	9.0798256E-006
-0.005	1.0003573E-005
-0.01	1.101508E-005
-0.015	1.2121869E-005
-0.02	1.3331948E-005
-0.025	1.4653803E-005
-0.03	1.6096379E-005
-0.035	1.7669057E-005
-0.04	1.9381606E-005
-0.045	2.124412E-005
-0.05	2.3266937E-005
-0.055	2.5460522E-005
-0.06	2.783533E-005
-0.065	3.0401628E-005
-0.07	3.3169278E-005
-0.075	3.6147479E-005
-0.08	3.9344462E-005
-0.085	4.2767135E-005
-0.09	4.6420675E-005
-0.095	5.0308076E-005
-0.1	5.4429643E-005
-0.105	5.8782458E-005
-0.11	6.3359816E-005
-0.115	6.8150645E-005
-0.12	7.3138958E-005
-0.125	7.8303339E-005
-0.13	8.3616521E-005
-0.135	8.9045087E-005
-0.14	9.4549355E-005
-0.145	0.00010008349
-0.15	0.00010559587
-0.155	0.00011102984
-0.16	0.0001163247
-0.165	0.00012141718
-0.17	0.00012624315
-0.175	0.00013073966
-0.18	0.00013484722
-0.185	0.00013851209
-0.19	0.00014168857
-0.195	0.00014434102
-0.2	0.00014644547
-0.205	0.00014799075
-0.21	0.00014897886
-0.215	0.0001494247
-0.22	0.00014935505
-0.225	0.00014880695
-0.23	0.0001478256
-0.235	0.00014646194
-0.24	0.0001447702
-0.245	0.00014280551
-0.25	0.00014062178
-0.255	0.00013826998
-0.26	0.00013579687
-0.265	0.00013324413
-0.27	0.000130648
-0.275	0.00012803916
-0.28	0.00012544293
-0.285	0.00012287972
-0.29	0.00012036546
-0.295	0.00011791224
-0.3	0.00011552882
-0.305	0.00011322122
-0.31	0.0001109932
-0.315	0.00010884671
-0.32	0.00010678227
-0.325	0.00010479929
-0.33	0.00010289636
-0.335	0.00010107144
-0.34	9.9322073E-005
-0.345	9.7645487E-005
-0.35	9.6038735E-005
-0.355	9.4498772E-005
-0.36	9.302252E-005
-0.365	9.1606918E-005
-0.37	9.0248963E-005
-0.375	8.8945731E-005
-0.38	8.7694397E-005
-0.385	8.6492253E-005
-0.39	8.5336706E-005
-0.395	8.4225289E-005
-0.4	8.3155662E-005
-0.405	8.2125607E-005
-0.41	8.1133026E-005
-0.415	8.0175942E-005
-0.42	7.925249E-005
-0.425	7.8360914E-005
-0.43	7.7499562E-005
-0.435	7.666688E-005
-0.44	7.5861409E-005
-0.445	7.5081774E-005
-0.45	7.4326688E-005
-0.455	7.3594937E-005
-0.46	7.2885385E-005
-0.465	7.219696E-005
-0.47	7.1528657E-005
-0.475	7.087953E-005
-0.48	7.0248692E-005
-0.485	6.9635304E-005
-0.49	6.9038581E-005
-0.495	6.8457781E-005
-0.5	6.7892207E-005
-0.495	6.7230121E-005
-0.49	6.6688411E-005
-0.485	6.6131487E-005
-0.48	6.5593752E-005
-0.475	6.5071885E-005
-0.47	6.4562712E-005
-0.465	6.4064515E-005
-0.46	6.3576278E-005
-0.455	6.3097225E-005
-0.45	6.2626644E-005
-0.445	6.2163843E-005
-0.44	6.1708121E-005
-0.435	6.1258788E-005
-0.43	6.0815191E-005
-0.425	6.03767E-005
-0.42	5.9942665E-005
-0.415	5.9512423E-005
-0.41	5.9085307E-005
-0.405	5.8660642E-005
-0.4	5.8237732E-005
-0.395	5.7815853E-005
-0.39	5.7394257E-005
-0.385	5.6972168E-005
-0.38	5.6548777E-005
-0.375	5.6123239E-005
-0.37	5.569467E-005
-0.365	5.5262143E-005
-0.36	5.4824692E-005
-0.355	5.4381301E-005
-0.35	5.3930912E-005
-0.345	5.3472417E-005
-0.34	5.3004665E-005
-0.335	5.2526457E-005
-0.33	5.2036553E-005
-0.325	5.1533673E-005
-0.32	5.1016503E-005
-0.315	5.0483704E-005
-0.31	4.9933916E-005
-0.305	4.936577E-005
-0.3	4.8777902E-005
-0.295	4.8168968E-005
-0.29	4.7537658E-005
-0.285	4.6882715E-005
-0.28	4.6202959E-005
-0.275	4.5497307E-005
-0.27	4.4764795E-005
-0.265	4.4004608E-005
-0.26	4.3216102E-005
-0.255	4.2398829E-005
-0.25	4.155256E-005
-0.245	4.0677311E-005
-0.24	3.9773361E-005
-0.235	3.8841266E-005
-0.23	3.7881871E-005
-0.225	3.6896321E-005
-0.22	3.5886055E-005
-0.215	3.4852807E-005
-0.21	3.3798587E-005
-0.205	3.2725669E-005
-0.2	3.1636564E-005
-0.195	3.0533987E-005
-0.19	2.9420824E-005
-0.185	2.8300088E-005
-0.18	2.7174883E-005
-0.175	2.6048348E-005
-0.17	2.4923621E-005
-0.165	2.3803784E-005
-0.16	2.2691824E-005
-0.155	2.1590588E-005
-0.15	2.0502746E-005
-0.145	1.9430753E-005
-0.14	1.8376823E-005
-0.135	1.7342901E-005
-0.13	1.6330647E-005
-0.125	1.5341415E-005
-0.12	1.437625E-005
-0.115	1.3435879E-005
-0.11	1.2520711E-005
-0.105	1.1630842E-005
-0.1	1.0766055E-005
-0.095	9.9258358E-006
-0.09	9.1093773E-006
-0.085	8.315593E-006
-0.08	7.5431286E-006
-0.075	6.7903739E-006
-0.07	6.0554744E-006
-0.065	5.3363423E-006
-0.06	4.6306665E-006
-0.055	3.9359208E-006
-0.05	3.2493711E-006
-0.045	2.5680809E-006
-0.04	1.8889152E-006
-0.035	1.208542E-006
-0.03	5.2343373E-007
-0.025	-1.7013448E-007
-0.02	-8.7608625E-007
-0.015	-1.5985472E-006
-0.01	-2.3418483E-006
-0.005	-3.1105296E-006
-2.89699E-016	-3.9093431E-006
0.005	-4.7432548E-006
0.01	-5.617445E-006
0.015	-6.5373053E-006
0.02	-7.5084319E-006
0.025	-8.5366145E-006
0.03	-9.627818E-006
0.035	-1.0788156E-005
0.04	-1.2023857E-005
0.045	-1.3341213E-005
0.05	-1.4746522E-005
0.055	-1.6246011E-005
0.06	-1.7845737E-005
0.065	-1.9551472E-005
0.07	-2.1368564E-005
0.075	-2.3301773E-005
0.08	-2.5355077E-005
0.085	-2.7531458E-005
0.09	-2.983265E-005
0.095	-3.2258872E-005
0.1	-3.4808532E-005
0.105	-3.747792E-005
0.11	-4.0260888E-005
0.115	-4.3148538E-005
0.12	-4.6128932E-005
0.125	-4.9186837E-005
0.13	-5.2303539E-005
0.135	-5.5456742E-005
0.14	-5.8620584E-005
0.145	-6.1765808E-005
0.15	-6.4860092E-005
0.155	-6.7868584E-005
0.16	-7.0754639E-005
0.165	-7.348075E-005
0.17	-7.6009681E-005
0.175	-7.8305731E-005
0.18	-8.0336092E-005
0.185	-8.207222E-005
0.19	-8.3491114E-005
0.195	-8.457642E-005
0.2	-8.531925E-005
0.205	-8.5718639E-005
0.21	-8.5781585E-005
0.215	-8.5522656E-005
0.22	-8.4963186E-005
0.225	-8.4130119E-005
0.23	-8.3054614E-005
0.235	-8.1770513E-005
0.24	-8.0312815E-005
0.245	-7.8716257E-005
0.25	-7.7014097E-005
0.255	-7.5237162E-005
0.26	-7.3413179E-005
0.265	-7.1566388E-005
0.27	-6.9717402E-005
0.275	-6.7883269E-005
0.28	-6.6077683E-005
0.285	-6.43113E-005
0.29	-6.2592102E-005
0.295	-6.0925781E-005
0.3	-5.9316118E-005
0.305	-5.7765325E-005
0.31	-5.6274369E-005
0.315	-5.4843231E-005
0.32	-5.3471148E-005
0.325	-5.2156797E-005
0.33	-5.0898454E-005
0.335	-4.9694118E-005
0.34	-4.8541611E-005
0.345	-4.7438655E-005
0.35	-4.6382932E-005
0.355	-4.5372123E-005
0.36	-4.4403951E-005
0.365	-4.3476194E-005
0.37	-4.258671E-005
0.375	-4.1733443E-005
0.38	-4.0914429E-005
0.385	-4.0127805E-005
0.39	-3.9371804E-005
0.395	-3.8644757E-005
0.4	-3.794509E-005
0.405	-3.7271322E-005
0.41	-3.662206E-005
0.415	-3.5995995E-005
0.42	-3.5391901E-005
0.425	-3.4808625E-005
0.43	-3.4245087E-005
0.435	-3.3700274E-005
0.44	-3.3173237E-005
0.445	-3.2663086E-005
0.45	-3.2168987E-005
0.455	-3.1690156E-005
0.46	-3.1225858E-005
0.465	-3.0775406E-005
0.47	-3.0338151E-005
0.475	-2.9913485E-005
0.48	-2.9500839E-005
0.485	-2.9099673E-005
0.49	-2.8709484E-005
0.495	-2.8329795E-005
0.5	-2.7960159E-005
