simulated data
number of E (V), I (A) couples: 400
0.495	2.6475644E-011
0.49	6.762982E-012
0.485	1.5059272E-011
0.48	1.6427788E-011
0.475	1.8842269E-011
0.47	2.2317446E-011
0.465	2.6779855E-011
0.46	3.2287124E-011
0.455	3.9013262E-011
0.45	4.720827E-011
0.445	5.7185874E-011
0.44	6.9333174E-011
0.435	8.4115051E-011
0.43	1.0208783E-010
0.425	1.2393145E-010
0.42	1.5047994E-010
0.415	1.8274561E-010
0.41	2.2195415E-010
0.405	2.6959526E-010
0.4	3.2748156E-010
0.395	3.9781547E-010
0.39	4.8327176E-010
0.385	5.8709993E-010
0.38	7.1324848E-010
0.375	8.6651485E-010
0.37	1.0527274E-009
0.365	1.2789672E-009
0.36	1.553837E-009
0.355	1.8877888E-009
0.35	2.2935207E-009
0.345	2.7864594E-009
0.34	3.3853469E-009
0.335	4.1129523E-009
0.33	4.996937E-009
0.325	6.0709052E-009
0.32	7.37568E-009
0.315	8.9608533E-009
0.31	1.0886667E-008
0.305	1.3226301E-008
0.3	1.6068641E-008
0.295	1.9521655E-008
0.29	2.3716472E-008
0.285	2.881235E-008
0.28	3.5002686E-008
0.275	4.2522315E-008
0.27	5.1656356E-008
0.265	6.2750928E-008
0.26	7.6226127E-008
0.255	9.2591734E-008
0.25	1.124662E-007
0.245	1.3659958E-007
0.24	1.6590121E-007
0.235	2.0147302E-007
0.23	2.4464958E-007
0.225	2.9704621E-007
0.22	3.606164E-007
0.215	4.3772033E-007
0.21	5.3120626E-007
0.205	6.4450653E-007
0.2	7.8175036E-007
0.195	9.4789506E-007
0.19	1.1488774E-006
0.185	1.3917863E-006
0.18	1.6850557E-006
0.175	2.038678E-006
0.17	2.4644315E-006
0.165	2.9761165E-006
0.16	3.5897874E-006
0.155	4.323965E-006
0.15	5.1998067E-006
0.145	6.2412061E-006
0.14	7.4747926E-006
0.135	8.9297956E-006
0.13	1.0637745E-005
0.125	1.2631988E-005
0.12	1.4947015E-005
0.115	1.7617609E-005
0.11	2.0677871E-005
0.105	2.4160165E-005
0.1	2.8094075E-005
0.095	3.2505457E-005
0.09	3.7415654E-005
0.085	4.2840944E-005
0.08	4.879223E-005
0.075	5.5275006E-005
0.07	6.2289533E-005
0.065	6.9831223E-005
0.06	7.7891152E-005
0.055	8.645665E-005
0.05	9.5511937E-005
0.045	0.00010503874
0.04	0.00011501688
0.035	0.0001254248
0.03	0.00013624001
0.025	0.0001474395
0.02	0.00015900002
0.015	0.00017089836
0.01	0.00018311151
0.005	0.00019561682
-3.76435E-016	0.00020839209
-0.005	0.0002214156
-0.01	0.00023466616
-0.015	0.00024812309
-0.02	0.0002617662
-0.025	0.00027557578
-0.03	0.00028953247
-0.035	0.00030361726
-0.04	0.00031781138
-0.045	0.00033209621
-0.05	0.00034645321
-0.055	0.00036086375
-0.06	0.00037530904
-0.065	0.00038976996
-0.07	0.00040422697
-0.075	0.00041865984
-0.08	0.00043304757
-0.085	0.0004473681
-0.09	0.0004615981
-0.095	0.00047571269
-0.1	0.00048968509
-0.105	0.00050348625
-0.11	0.00051708437
-0.115	0.00053044438
-0.12	0.00054352726
-0.125	0.00055628923
-0.13	0.00056868083
-0.135	0.00058064563
-0.14	0.00059211882
-0.145	0.00060302533
-0.15	0.00061327754
-0.155	0.00062277242
-0.16	0.00063138792
-0.165	0.00063897862
-0.17	0.00064537032
-0.175	0.00065035384
-0.18	0.00065367842
-0.185	0.00065504601
-0.19	0.00065411006
-0.195	0.00065048597
-0.2	0.00064378765
-0.205	0.0006337125
-0.21	0.0006201959
-0.215	0.00060361472
-0.22	0.00058490914
-0.225	0.00056540989
-0.23	0.00054636152
-0.235	0.00052853107
-0.24	0.00051220888
-0.245	0.00049741115
-0.25	0.00048402519
-0.255	0.00047188501
-0.26	0.00046081994
-0.265	0.00045067875
-0.27	0.00044133434
-0.275	0.00043268104
-0.28	0.00042463089
-0.285	0.00041711049
-0.29	0.00041005839
-0.295	0.00040342284
-0.3	0.00039715993
-0.305	0.00039123214
-0.31	0.0003856073
-0.315	0.00038025761
-0.32	0.00037515892
-0.325	0.00037029009
-0.33	0.00036563255
-0.335	0.00036116988
-0.34	0.00035688752
-0.345	0.00035277245
-0.35	0.00034881302
-0.355	0.00034499875
-0.36	0.00034132017
-0.365	0.0003377687
-0.37	0.00033433654
-0.375	0.00033101659
-0.38	0.00032780233
-0.385	0.00032468781
-0.39	0.00032166756
-0.395	0.00031873654
-0.4	0.00031589011
-0.405	0.00031312396
-0.41	0.00031043411
-0.415	0.00030781687
-0.42	0.0003052688
-0.425	0.00030278672
-0.43	0.00030036764
-0.435	0.00029800878
-0.44	0.00029570754
-0.445	0.00029346147
-0.45	0.0002912683
-0.455	0.00028912587
-0.46	0.00028703217
-0.465	0.0002849853
-0.47	0.00028298346
-0.475	0.00028102496
-0.48	0.0002791082
-0.485	0.00027723167
-0.49	0.00027539394
-0.495	0.00027359365
-0.5	0.0002718295
-0.495	0.00027009963
-0.49	0.00026840414
-0.485	0.00026674112
-0.48	0.00026510973
-0.475	0.00026350894
-0.47	0.00026193777
-0.465	0.0002603953
-0.46	0.00025888063
-0.455	0.00025739293
-0.45	0.00025593139
-0.445	0.00025449523
-0.44	0.00025308371
-0.435	0.00025169612
-0.43	0.00025033177
-0.425	0.00024899
-0.42	0.00024767018
-0.415	0.00024637169
-0.41	0.00024509395
-0.405	0.00024383638
-0.4	0.00024259844
-0.395	0.00024137959
-0.39	0.00024017931
-0.385	0.0002389971
-0.38	0.00023783248
-0.375	0.00023668495
-0.37	0.00023555406
-0.365	0.00023443934
-0.36	0.00023334035
-0.355	0.00023225662
-0.35	0.00023118771
-0.345	0.00023013316
-0.34	0.00022909253
-0.335	0.00022806533
-0.33	0.0002270511
-0.325	0.00022604933
-0.32	0.00022505949
-0.315	0.00022408103
-0.31	0.00022311333
-0.305	0.00022215574
-0.3	0.00022120753
-0.295	0.00022026788
-0.29	0.00021933588
-0.285	0.0002184105
-0.28	0.00021749053
-0.275	0.0002165746
-0.27	0.00021566109
-0.265	0.00021474814
-0.26	0.00021383353
-0.255	0.00021291469
-0.25	0.00021198853
-0.245	0.00021105146
-0.24	0.00021009918
-0.235	0.00020912664
-0.23	0.00020812786
-0.225	0.00020709577
-0.22	0.00020602207
-0.215	0.00020489702
-0.21	0.00020370922
-0.205	0.00020244544
-0.2	0.00020109039
-0.195	0.00019962656
-0.19	0.00019803407
-0.185	0.00019629056
-0.18	0.00019437124
-0.175	0.00019224896
-0.17	0.00018989453
-0.165	0.00018727706
-0.16	0.00018436463
-0.155	0.00018112491
-0.15	0.00017752609
-0.145	0.00017353776
-0.14	0.00016913183
-0.135	0.0001642834
-0.13	0.00015897143
-0.125	0.00015317937
-0.12	0.00014689542
-0.115	0.00014011267
-0.11	0.00013282898
-0.105	0.00012504674
-0.1	0.00011677246
-0.095	0.00010801623
-0.09	9.8791248E-005
-0.085	8.9113213E-005
-0.08	7.8999826E-005
-0.075	6.8470293E-005
-0.07	5.7544892E-005
-0.065	4.6244601E-005
-0.06	3.4590784E-005
-0.055	2.2604939E-005
-0.05	1.0308499E-005
-0.045	-2.277318E-006
-0.04	-1.5131612E-005
-0.035	-2.8233875E-005
-0.03	-4.156403E-005
-0.025	-5.5102442E-005
-0.02	-6.8829912E-005
-0.015	-8.272765E-005
-0.01	-9.6777237E-005
-0.005	-0.00011096057
-2.89699E-016	-0.00012525978
0.005	-0.00013965721
0.01	-0.00015413526
0.015	-0.00016867635
0.02	-0.00018326277
0.025	-0.00019787662
0.03	-0.00021249962
0.035	-0.00022711304
0.04	-0.00024169745
0.045	-0.00025623265
0.05	-0.00027069736
0.055	-0.00028506906
0.06	-0.00029932371
0.065	-0.00031343538
0.07	-0.00032737597
0.075	-0.00034111469
0.08	-0.00035461759
0.085	-0.00036784691
0.09	-0.00038076034
0.095	-0.00039331008
0.1	-0.00040544168
0.105	-0.00041709273
0.11	-0.00042819102
0.115	-0.00043865249
0.12	-0.00044837849
0.125	-0.00045725249
0.13	-0.00046513602
0.135	-0.00047186371
0.14	-0.00047723763
0.145	-0.00048102118
0.15	-0.0004829338
0.155	-0.00048264954
0.16	-0.00047980554
0.165	-0.00047403287
0.17	-0.00046502891
0.175	-0.00045269155
0.18	-0.00043730447
0.185	-0.00041967329
0.19	-0.0004010215
0.195	-0.00038258425
0.2	-0.00036519854
0.205	-0.00034922923
0.21	-0.00033473962
0.215	-0.00032164516
0.22	-0.00030979578
0.225	-0.0002990273
0.23	-0.00028918985
0.235	-0.00028015581
0.24	-0.00027181853
0.245	-0.000264089
0.25	-0.00025689279
0.255	-0.00025016753
0.26	-0.00024386068
0.265	-0.00023792767
0.27	-0.00023233046
0.275	-0.00022703637
0.28	-0.00022201724
0.285	-0.00021724859
0.29	-0.00021270904
0.295	-0.00020837981
0.3	-0.00020424429
0.305	-0.00020028778
0.31	-0.00019649717
0.315	-0.0001928607
0.32	-0.00018936781
0.325	-0.00018600898
0.33	-0.00018277558
0.335	-0.00017965978
0.34	-0.00017665443
0.345	-0.00017375303
0.35	-0.00017094959
0.355	-0.00016823864
0.36	-0.00016561513
0.365	-0.00016307441
0.37	-0.00016061218
0.375	-0.00015822447
0.38	-0.00015590759
0.385	-0.00015365811
0.39	-0.00015147284
0.395	-0.00014934883
0.4	-0.00014728328
0.405	-0.00014527363
0.41	-0.00014331743
0.415	-0.00014141242
0.42	-0.00013955646
0.425	-0.00013774755
0.43	-0.0001359838
0.435	-0.00013426343
0.44	-0.00013258477
0.445	-0.00013094623
0.45	-0.0001293463
0.455	-0.00012778358
0.46	-0.00012625672
0.465	-0.00012476445
0.47	-0.00012330554
0.475	-0.00012187886
0.48	-0.00012048331
0.485	-0.00011911784
0.49	-0.00011778145
0.495	-0.00011647321
0.5	-0.00011519221
