simulated data
number of E (V), I (A) couples: 400
0.495	1.162158E-011
0.49	3.1686196E-012
0.485	6.5905812E-012
0.48	7.3056621E-012
0.475	8.3462694E-012
0.47	9.8714694E-012
0.465	1.1830704E-011
0.46	1.4244665E-011
0.455	1.7187231E-011
0.45	2.0764832E-011
0.445	2.511038E-011
0.44	3.0386973E-011
0.435	3.6789472E-011
0.43	4.4549462E-011
0.425	5.3947801E-011
0.42	6.5326436E-011
0.415	7.909706E-011
0.41	9.5753375E-011
0.405	1.1588916E-010
0.4	1.4021882E-010
0.395	1.6959984E-010
0.39	2.0505959E-010
0.385	2.4782785E-010
0.38	2.9937505E-010
0.375	3.6145665E-010
0.37	4.3616488E-010
0.365	5.2598917E-010
0.36	6.3388616E-010
0.355	7.6336061E-010
0.35	9.1855829E-010
0.345	1.1043723E-009
0.34	1.3265643E-009
0.335	1.5919014E-009
0.33	1.9083111E-009
0.325	2.2850543E-009
0.32	2.7329183E-009
0.315	3.26443E-009
0.31	3.894091E-009
0.305	4.6386346E-009
0.3	5.5173043E-009
0.295	6.5521549E-009
0.29	7.7683761E-009
0.285	9.1946363E-009
0.28	1.086345E-008
0.275	1.2811562E-008
0.27	1.5080358E-008
0.265	1.7716292E-008
0.26	2.0771333E-008
0.255	2.430344E-008
0.25	2.8377061E-008
0.245	3.3063653E-008
0.24	3.8442243E-008
0.235	4.4600027E-008
0.23	5.1633003E-008
0.225	5.9646677E-008
0.22	6.8756808E-008
0.215	7.909025E-008
0.21	9.0785864E-008
0.205	1.0399553E-007
0.2	1.1888529E-007
0.195	1.3563656E-007
0.19	1.5444758E-007
0.185	1.7553492E-007
0.18	1.9913521E-007
0.175	2.2550702E-007
0.17	2.5493302E-007
0.165	2.8772225E-007
0.16	3.2421265E-007
0.155	3.6477394E-007
0.15	4.0981059E-007
0.145	4.5976518E-007
0.14	5.1512203E-007
0.135	5.7641111E-007
0.13	6.4421231E-007
0.125	7.1915994E-007
0.12	8.0194769E-007
0.115	8.9333382E-007
0.11	9.9414679E-007
0.105	1.1052911E-006
0.1	1.2277538E-006
0.095	1.3626104E-006
0.09	1.5110327E-006
0.085	1.6742951E-006
0.08	1.8537822E-006
0.075	2.0509962E-006
0.07	2.2675645E-006
0.065	2.505247E-006
0.06	2.7659435E-006
0.055	3.0517006E-006
0.05	3.3647178E-006
0.045	3.7073539E-006
0.04	4.0821309E-006
0.035	4.4917383E-006
0.03	4.9390344E-006
0.025	5.4270471E-006
0.02	5.9589712E-006
0.015	6.5381645E-006
0.01	7.1681403E-006
0.005	7.8525565E-006
-3.76435E-016	8.5952022E-006
-0.005	9.3999796E-006
-0.01	1.0270883E-005
-0.015	1.1211973E-005
-0.02	1.2227347E-005
-0.025	1.3321108E-005
-0.03	1.4497327E-005
-0.035	1.5760003E-005
-0.04	1.7113026E-005
-0.045	1.8560129E-005
-0.05	2.0104849E-005
-0.055	2.1750483E-005
-0.06	2.3500048E-005
-0.065	2.5356239E-005
-0.07	2.7321399E-005
-0.075	2.9397486E-005
-0.08	3.1586047E-005
-0.085	3.3888201E-005
-0.09	3.6304623E-005
-0.095	3.8835539E-005
-0.1	4.1480724E-005
-0.105	4.4239508E-005
-0.11	4.7110787E-005
-0.115	5.0093037E-005
-0.12	5.3184337E-005
-0.125	5.6382389E-005
-0.13	5.9684545E-005
-0.135	6.3087834E-005
-0.14	6.658899E-005
-0.145	7.0184485E-005
-0.15	7.3870549E-005
-0.155	7.7643204E-005
-0.16	8.1498286E-005
-0.165	8.5431469E-005
-0.17	8.9438287E-005
-0.175	9.3514155E-005
-0.18	9.7654381E-005
-0.185	0.00010185418
-0.19	0.0001061087
-0.195	0.000110413
-0.2	0.0001147621
-0.205	0.00011915092
-0.21	0.00012357436
-0.215	0.00012802723
-0.22	0.00013250431
-0.225	0.00013700027
-0.23	0.00014150973
-0.235	0.00014602722
-0.24	0.00015054715
-0.245	0.00015506385
-0.25	0.00015957149
-0.255	0.0001640641
-0.26	0.00016853556
-0.265	0.00017297952
-0.27	0.00017738944
-0.275	0.00018175852
-0.28	0.00018607969
-0.285	0.00019034555
-0.29	0.00019454835
-0.295	0.00019867996
-0.3	0.00020273179
-0.305	0.00020669476
-0.31	0.00021055924
-0.315	0.000214315
-0.32	0.00021795114
-0.325	0.00022145599
-0.33	0.0002248171
-0.335	0.0002280211
-0.34	0.00023105366
-0.345	0.0002338994
-0.35	0.00023654181
-0.355	0.0002389632
-0.36	0.00024114464
-0.365	0.00024306596
-0.37	0.00024470577
-0.375	0.00024604157
-0.38	0.00024704994
-0.385	0.00024770691
-0.39	0.00024798846
-0.395	0.00024787134
-0.4	0.00024733413
-0.405	0.00024635875
-0.41	0.00024493235
-0.415	0.00024304951
-0.42	0.00024071482
-0.425	0.00023794526
-0.43	0.00023477219
-0.435	0.00023124206
-0.44	0.00022741544
-0.445	0.00022336386
-0.45	0.00021916468
-0.455	0.0002148949
-0.46	0.00021062508
-0.465	0.0002064148
-0.47	0.00020231028
-0.475	0.00019834415
-0.48	0.00019453692
-0.485	0.00019089914
-0.49	0.00018743388
-0.495	0.00018413897
-0.5	0.00018100879
-0.495	0.0001754271
-0.49	0.00017217781
-0.485	0.00016894968
-0.48	0.00016587314
-0.475	0.00016304163
-0.47	0.00016039447
-0.465	0.00015787471
-0.46	0.00015545569
-0.455	0.00015312355
-0.45	0.00015086723
-0.445	0.00014867647
-0.44	0.00014654169
-0.435	0.00014445416
-0.43	0.00014240659
-0.425	0.00014039284
-0.42	0.00013840731
-0.415	0.00013644463
-0.41	0.00013449993
-0.405	0.00013256891
-0.4	0.00013064765
-0.395	0.00012873248
-0.39	0.00012682
-0.385	0.00012490714
-0.38	0.00012299111
-0.375	0.00012106939
-0.37	0.00011913967
-0.365	0.00011719992
-0.36	0.00011524835
-0.355	0.0001132834
-0.35	0.00011130378
-0.345	0.00010930839
-0.34	0.0001072964
-0.335	0.00010526721
-0.33	0.00010322042
-0.325	0.00010115588
-0.32	9.9073653E-005
-0.315	9.6974018E-005
-0.31	9.485746E-005
-0.305	9.2724667E-005
-0.3	9.0576524E-005
-0.295	8.8414104E-005
-0.29	8.6238657E-005
-0.285	8.4051607E-005
-0.28	8.1854536E-005
-0.275	7.9649179E-005
-0.27	7.7437412E-005
-0.265	7.5221241E-005
-0.26	7.3002791E-005
-0.255	7.0784294E-005
-0.25	6.8568081E-005
-0.245	6.6356562E-005
-0.24	6.4152222E-005
-0.235	6.1957601E-005
-0.23	5.9775285E-005
-0.225	5.760789E-005
-0.22	5.5458048E-005
-0.215	5.3328396E-005
-0.21	5.1221552E-005
-0.205	4.914011E-005
-0.2	4.7086618E-005
-0.195	4.5063563E-005
-0.19	4.3073354E-005
-0.185	4.1118309E-005
-0.18	3.9200634E-005
-0.175	3.732241E-005
-0.17	3.5485575E-005
-0.165	3.3691909E-005
-0.16	3.194302E-005
-0.155	3.0240327E-005
-0.15	2.8585051E-005
-0.145	2.6978198E-005
-0.14	2.5420553E-005
-0.135	2.3912671E-005
-0.13	2.2454865E-005
-0.125	2.1047206E-005
-0.12	1.9689517E-005
-0.115	1.8381374E-005
-0.11	1.7122102E-005
-0.105	1.5910784E-005
-0.1	1.4746261E-005
-0.095	1.3627138E-005
-0.09	1.2551794E-005
-0.085	1.151839E-005
-0.08	1.0524876E-005
-0.075	9.5690072E-006
-0.07	8.6483487E-006
-0.065	7.7602908E-006
-0.06	6.9020584E-006
-0.055	6.0707225E-006
-0.05	5.2632104E-006
-0.045	4.4763154E-006
-0.04	3.7067063E-006
-0.035	2.9509359E-006
-0.03	2.2054487E-006
-0.025	1.4665885E-006
-0.02	7.3060509E-007
-0.015	-6.3389067E-009
-0.01	-7.4816159E-007
-0.005	-1.4988548E-006
-2.89699E-016	-2.2624767E-006
0.005	-3.0431434E-006
0.01	-3.8450198E-006
0.015	-4.672308E-006
0.02	-5.529235E-006
0.025	-6.4200372E-006
0.03	-7.3489434E-006
0.035	-8.3201548E-006
0.04	-9.3378223E-006
0.045	-1.0406022E-005
0.05	-1.1528726E-005
0.055	-1.2709774E-005
0.06	-1.3952842E-005
0.065	-1.5261407E-005
0.07	-1.6638711E-005
0.075	-1.8087733E-005
0.08	-1.9611147E-005
0.085	-2.1211294E-005
0.09	-2.2890148E-005
0.095	-2.4649288E-005
0.1	-2.6489873E-005
0.105	-2.841262E-005
0.11	-3.0417787E-005
0.115	-3.250516E-005
0.12	-3.4674042E-005
0.125	-3.6923253E-005
0.13	-3.9251127E-005
0.135	-4.165552E-005
0.14	-4.4133811E-005
0.145	-4.6682921E-005
0.15	-4.9299319E-005
0.155	-5.1979038E-005
0.16	-5.4717692E-005
0.165	-5.7510487E-005
0.17	-6.0352238E-005
0.175	-6.3237382E-005
0.18	-6.6159987E-005
0.185	-6.9113763E-005
0.19	-7.2092067E-005
0.195	-7.5087907E-005
0.2	-7.8093937E-005
0.205	-8.1102459E-005
0.21	-8.410541E-005
0.215	-8.7094354E-005
0.22	-9.0060461E-005
0.225	-9.299449E-005
0.23	-9.5886764E-005
0.235	-9.8727145E-005
0.24	-0.000101505
0.245	-0.00010420917
0.25	-0.00010682794
0.255	-0.00010934898
0.26	-0.00011175938
0.265	-0.00011404552
0.27	-0.00011619315
0.275	-0.00011818732
0.28	-0.00012001245
0.285	-0.00012165232
0.29	-0.0001230902
0.295	-0.00012430899
0.3	-0.00012529141
0.305	-0.00012602037
0.31	-0.00012647938
0.315	-0.00012665316
0.32	-0.00012652838
0.325	-0.0001260946
0.33	-0.00012534544
0.335	-0.00012427972
0.34	-0.00012290281
0.345	-0.00012122767
0.35	-0.00011927561
0.355	-0.00011707642
0.36	-0.00011466758
0.365	-0.00011209261
0.37	-0.00010939843
0.375	-0.00010663237
0.38	-0.00010383908
0.385	-0.00010105798
0.39	-9.8321631E-005
0.395	-9.5655148E-005
0.4	-9.307641E-005
0.405	-9.0596916E-005
0.41	-8.8222932E-005
0.415	-8.5956681E-005
0.42	-8.3797441E-005
0.425	-8.1742465E-005
0.43	-7.9787699E-005
0.435	-7.7928323E-005
0.44	-7.6159134E-005
0.445	-7.4474817E-005
0.45	-7.287012E-005
0.455	-7.1339964E-005
0.46	-6.9879517E-005
0.465	-6.8484225E-005
0.47	-6.7149827E-005
0.475	-6.5872358E-005
0.48	-6.4648139E-005
0.485	-6.3473767E-005
0.49	-6.2346094E-005
0.495	-6.1262215E-005
0.5	-6.0219446E-005
