simulated data
number of E (V), I (A) couples: 400
0.495	8.3712566E-012
0.49	2.1393729E-012
0.485	4.7614287E-012
0.48	5.1947398E-012
0.475	5.9580508E-012
0.47	7.0568628E-012
0.465	8.4678208E-012
0.46	1.0209131E-011
0.455	1.23358E-011
0.45	1.4926859E-011
0.445	1.8081478E-011
0.44	2.1922019E-011
0.435	2.6595426E-011
0.43	3.2277535E-011
0.425	3.9183247E-011
0.42	4.7576142E-011
0.415	5.7776134E-011
0.41	7.0170534E-011
0.405	8.5230059E-011
0.4	1.035274E-010
0.395	1.2575835E-010
0.39	1.5276785E-010
0.385	1.8558229E-010
0.38	2.254487E-010
0.375	2.7388202E-010
0.37	3.3272251E-010
0.365	4.042056E-010
0.36	4.9104671E-010
0.355	5.9654429E-010
0.35	7.2470491E-010
0.345	8.8039507E-010
0.34	1.0695257E-009
0.335	1.2992761E-009
0.33	1.5783659E-009
0.325	1.9173847E-009
0.32	2.3291934E-009
0.315	2.8294102E-009
0.31	3.4370005E-009
0.305	4.1749939E-009
0.3	5.071353E-009
0.295	6.1600277E-009
0.29	7.4822349E-009
0.285	9.0880092E-009
0.28	1.1038085E-008
0.275	1.3406177E-008
0.27	1.6281746E-008
0.265	1.9773345E-008
0.26	2.4012685E-008
0.255	2.9159544E-008
0.25	3.540772E-008
0.245	4.2992235E-008
0.24	5.2198041E-008
0.235	6.3370558E-008
0.23	7.6928398E-008
0.225	9.3378733E-008
0.22	1.1333585E-007
0.215	1.375435E-007
0.21	1.6690186E-007
0.205	2.0249997E-007
0.2	2.4565467E-007
0.195	2.9795747E-007
0.19	3.6133059E-007
0.185	4.3809416E-007
0.18	5.3104641E-007
0.175	6.4355921E-007
0.17	7.7969173E-007
0.165	9.44325E-007
0.16	1.1433209E-006
0.155	1.3837092E-006
0.15	1.6739061E-006
0.145	2.0239689E-006
0.14	2.4458902E-006
0.135	2.9539347E-006
0.13	3.5650215E-006
0.125	4.2991523E-006
0.12	5.179883E-006
0.115	6.234833E-006
0.11	7.4962203E-006
0.105	9.0014017E-006
0.1	1.0793387E-005
0.095	1.2921283E-005
0.09	1.5440604E-005
0.085	1.8413366E-005
0.08	2.190785E-005
0.075	2.5997922E-005
0.07	3.0761719E-005
0.065	3.6279569E-005
0.06	4.2630937E-005
0.055	4.9890268E-005
0.05	5.8121611E-005
0.045	6.7372054E-005
0.04	7.7664119E-005
0.035	8.8987505E-005
0.03	0.00010129083
0.025	0.00011447428
0.02	0.00012838434
0.015	0.00014281188
0.01	0.00015749478
0.005	0.00017212604
-3.76435E-016	0.00018636762
-0.005	0.00019986937
-0.01	0.00021229157
-0.015	0.00022332864
-0.02	0.00023273106
-0.025	0.00024032264
-0.03	0.00024601073
-0.035	0.00024978828
-0.04	0.00025172779
-0.045	0.00025196858
-0.05	0.00025069974
-0.055	0.00024814123
-0.06	0.0002445258
-0.065	0.00024008338
-0.07	0.00023502915
-0.075	0.00022955553
-0.08	0.00022382782
-0.085	0.00021798297
-0.09	0.00021213047
-0.095	0.00020635476
-0.1	0.00020071847
-0.105	0.00019526584
-0.11	0.00019002615
-0.115	0.00018501686
-0.12	0.00018024627
-0.125	0.00017571587
-0.13	0.00017142218
-0.135	0.00016735823
-0.14	0.00016351472
-0.145	0.00015988095
-0.15	0.00015644542
-0.155	0.00015319634
-0.16	0.000150122
-0.165	0.00014721096
-0.17	0.00014445227
-0.175	0.0001418355
-0.18	0.00013935084
-0.185	0.00013698912
-0.19	0.00013474179
-0.195	0.00013260093
-0.2	0.00013055919
-0.205	0.00012860979
-0.21	0.0001267465
-0.215	0.00012496354
-0.22	0.00012325561
-0.225	0.00012161783
-0.23	0.00012004569
-0.235	0.00011853506
-0.24	0.0001170821
-0.245	0.0001156833
-0.25	0.00011433542
-0.255	0.00011303544
-0.26	0.00011178061
-0.265	0.00011056836
-0.27	0.00010939631
-0.275	0.00010826227
-0.28	0.0001071642
-0.285	0.00010610021
-0.29	0.00010506853
-0.295	0.00010406754
-0.3	0.00010309571
-0.305	0.00010215162
-0.31	0.00010123394
-0.315	0.00010034144
-0.32	9.9472958E-005
-0.325	9.8627412E-005
-0.33	9.7803786E-005
-0.335	9.7001126E-005
-0.34	9.6218538E-005
-0.345	9.545518E-005
-0.35	9.4710262E-005
-0.355	9.3983035E-005
-0.36	9.3272799E-005
-0.365	9.2578888E-005
-0.37	9.1900675E-005
-0.375	9.1237567E-005
-0.38	9.0589002E-005
-0.385	8.9954449E-005
-0.39	8.9333402E-005
-0.395	8.8725383E-005
-0.4	8.8129936E-005
-0.405	8.7546629E-005
-0.41	8.697505E-005
-0.415	8.6414806E-005
-0.42	8.5865524E-005
-0.425	8.5326848E-005
-0.43	8.4798437E-005
-0.435	8.4279966E-005
-0.44	8.3771125E-005
-0.445	8.3271615E-005
-0.45	8.2781154E-005
-0.455	8.2299467E-005
-0.46	8.1826295E-005
-0.465	8.1361387E-005
-0.47	8.0904503E-005
-0.475	8.0455412E-005
-0.48	8.0013892E-005
-0.485	7.9579732E-005
-0.49	7.9152727E-005
-0.495	7.873268E-005
-0.5	7.8319401E-005
-0.495	7.7910872E-005
-0.49	7.7510518E-005
-0.485	7.7115914E-005
-0.48	7.67275E-005
-0.475	7.6345063E-005
-0.47	7.5968407E-005
-0.465	7.5597368E-005
-0.46	7.5231793E-005
-0.455	7.487154E-005
-0.45	7.4516472E-005
-0.445	7.4166456E-005
-0.44	7.3821363E-005
-0.435	7.3481066E-005
-0.43	7.3145446E-005
-0.425	7.2814383E-005
-0.42	7.2487764E-005
-0.415	7.2165477E-005
-0.41	7.1847411E-005
-0.405	7.1533462E-005
-0.4	7.1223523E-005
-0.395	7.0917493E-005
-0.39	7.0615271E-005
-0.385	7.0316758E-005
-0.38	7.0021855E-005
-0.375	6.9730466E-005
-0.37	6.9442493E-005
-0.365	6.9157842E-005
-0.36	6.8876417E-005
-0.355	6.859812E-005
-0.35	6.8322855E-005
-0.345	6.8050525E-005
-0.34	6.7781029E-005
-0.335	6.7514266E-005
-0.33	6.7250132E-005
-0.325	6.6988517E-005
-0.32	6.6729312E-005
-0.315	6.6472397E-005
-0.31	6.621765E-005
-0.305	6.596494E-005
-0.3	6.5714127E-005
-0.295	6.5465062E-005
-0.29	6.5217583E-005
-0.285	6.4971513E-005
-0.28	6.4726659E-005
-0.275	6.4482807E-005
-0.27	6.4239721E-005
-0.265	6.3997135E-005
-0.26	6.3754751E-005
-0.255	6.3512234E-005
-0.25	6.3269199E-005
-0.245	6.3025211E-005
-0.24	6.2779768E-005
-0.235	6.2532293E-005
-0.23	6.2282119E-005
-0.225	6.2028469E-005
-0.22	6.1770442E-005
-0.215	6.1506982E-005
-0.21	6.1236856E-005
-0.205	6.0958614E-005
-0.2	6.0670551E-005
-0.195	6.0370658E-005
-0.19	6.0056562E-005
-0.185	5.9725461E-005
-0.18	5.937404E-005
-0.175	5.8998371E-005
-0.17	5.8593805E-005
-0.165	5.8154831E-005
-0.16	5.7674921E-005
-0.155	5.7146344E-005
-0.15	5.6559948E-005
-0.145	5.5904914E-005
-0.14	5.5168464E-005
-0.135	5.4335538E-005
-0.13	5.3388426E-005
-0.125	5.2306354E-005
-0.12	5.1065044E-005
-0.115	4.9636228E-005
-0.11	4.7987159E-005
-0.105	4.6080121E-005
-0.1	4.3871972E-005
-0.095	4.1313778E-005
-0.09	3.8350593E-005
-0.085	3.4921464E-005
-0.08	3.0959783E-005
-0.075	2.6394104E-005
-0.07	2.1149578E-005
-0.065	1.5150175E-005
-0.06	8.3218526E-006
-0.055	5.9680267E-007
-0.05	-8.0811409E-006
-0.045	-1.7749973E-005
-0.04	-2.8422058E-005
-0.035	-4.007615E-005
-0.03	-5.2649565E-005
-0.025	-6.603141E-005
-0.02	-8.0058047E-005
-0.015	-9.4512002E-005
-0.01	-0.00010912549
-0.005	-0.0001235893
-2.89699E-016	-0.0001375673
0.005	-0.00015071568
0.01	-0.00016270548
0.015	-0.00017324578
0.02	-0.0001821048
0.025	-0.00018912591
0.03	-0.00019423651
0.035	-0.00019744866
0.04	-0.00019885189
0.045	-0.00019859954
0.05	-0.00019689116
0.055	-0.00019395357
0.06	-0.0001900229
0.065	-0.00018532947
0.07	-0.00018008643
0.075	-0.00017448235
0.08	-0.00016867756
0.085	-0.00016280331
0.09	-0.00015696321
0.095	-0.00015123589
0.1	-0.00014567845
0.105	-0.00014033007
0.11	-0.00013521547
0.115	-0.00013034809
0.12	-0.00012573275
0.125	-0.00012136794
0.13	-0.00011724762
0.135	-0.0001133627
0.14	-0.00010970211
0.145	-0.00010625366
0.15	-0.00010300465
0.155	-9.9942316E-005
0.16	-9.7054146E-005
0.165	-9.4328085E-005
0.17	-9.1752666E-005
0.175	-8.9317089E-005
0.18	-8.7011252E-005
0.185	-8.482576E-005
0.19	-8.2751912E-005
0.195	-8.0781676E-005
0.2	-7.8907649E-005
0.205	-7.7123026E-005
0.21	-7.5421553E-005
0.215	-7.3797488E-005
0.22	-7.2245563E-005
0.225	-7.076094E-005
0.23	-6.9339181E-005
0.235	-6.7976207E-005
0.24	-6.6668273E-005
0.245	-6.5411933E-005
0.25	-6.4204018E-005
0.255	-6.3041609E-005
0.26	-6.1922016E-005
0.265	-6.0842755E-005
0.27	-5.9801534E-005
0.275	-5.8796232E-005
0.28	-5.7824886E-005
0.285	-5.6885679E-005
0.29	-5.5976922E-005
0.295	-5.509705E-005
0.3	-5.4244605E-005
0.305	-5.3418231E-005
0.31	-5.2616665E-005
0.315	-5.1838726E-005
0.32	-5.1083314E-005
0.325	-5.0349398E-005
0.33	-4.9636014E-005
0.335	-4.8942256E-005
0.34	-4.8267278E-005
0.345	-4.7610282E-005
0.35	-4.6970518E-005
0.355	-4.6347281E-005
0.36	-4.5739905E-005
0.365	-4.5147762E-005
0.37	-4.457026E-005
0.375	-4.4006838E-005
0.38	-4.3456966E-005
0.385	-4.2920141E-005
0.39	-4.2395888E-005
0.395	-4.1883752E-005
0.4	-4.1383306E-005
0.405	-4.0894141E-005
0.41	-4.0415867E-005
0.415	-3.9948115E-005
0.42	-3.9490533E-005
0.425	-3.9042782E-005
0.43	-3.8604544E-005
0.435	-3.817551E-005
0.44	-3.7755387E-005
0.445	-3.7343895E-005
0.45	-3.6940765E-005
0.455	-3.654574E-005
0.46	-3.6158573E-005
0.465	-3.5779029E-005
0.47	-3.540688E-005
0.475	-3.5041909E-005
0.48	-3.4683906E-005
0.485	-3.4332672E-005
0.49	-3.3988011E-005
0.495	-3.3649739E-005
0.5	-3.3317678E-005
