simulated data
number of E (V), I (A) couples: 400
0.495	2.6464609E-011
0.49	6.7704586E-012
0.485	1.505178E-011
0.48	1.6425907E-011
0.475	1.8838188E-011
0.47	2.231197E-011
0.465	2.6772533E-011
0.46	3.2277324E-011
0.455	3.9000141E-011
0.45	4.7190709E-011
0.445	5.7162371E-011
0.44	6.9301701E-011
0.435	8.4072901E-011
0.43	1.0203138E-010
0.425	1.2385586E-010
0.42	1.503787E-010
0.415	1.8261E-010
0.41	2.217725E-010
0.405	2.6935193E-010
0.4	3.2715559E-010
0.395	3.9737877E-010
0.39	4.8268668E-010
0.385	5.8631602E-010
0.38	7.1219811E-010
0.375	8.6510735E-010
0.37	1.0508413E-009
0.365	1.2764394E-009
0.36	1.5504491E-009
0.355	1.8832476E-009
0.35	2.2874331E-009
0.345	2.778298E-009
0.34	3.3744041E-009
0.335	4.0982785E-009
0.33	4.9772574E-009
0.325	6.0445086E-009
0.32	7.3402684E-009
0.315	8.91334E-009
0.31	1.0822906E-008
0.305	1.3140717E-008
0.3	1.5953743E-008
0.295	1.9367368E-008
0.29	2.3509244E-008
0.285	2.8533943E-008
0.28	3.4628549E-008
0.275	4.2019387E-008
0.27	5.0980098E-008
0.265	6.1841314E-008
0.26	7.5002228E-008
0.255	9.09444E-008
0.25	1.1024817E-007
0.245	1.3361211E-007
0.24	1.61876E-007
0.235	1.9604781E-007
0.23	2.3733524E-007
0.225	2.8718227E-007
0.22	3.4731126E-007
0.215	4.197709E-007
0.21	5.0699016E-007
0.205	6.1183813E-007
0.2	7.3768916E-007
0.195	8.8849202E-007
0.19	1.0688412E-006
0.185	1.2840472E-006
0.18	1.5402023E-006
0.175	1.8442348E-006
0.17	2.2039481E-006
0.165	2.628034E-006
0.16	3.1260544E-006
0.155	3.7083839E-006
0.15	4.3861064E-006
0.145	5.1708633E-006
0.14	6.0746537E-006
0.135	7.1095922E-006
0.13	8.2876345E-006
0.125	9.6202853E-006
0.12	1.1118308E-005
0.115	1.279145E-005
0.11	1.4648213E-005
0.105	1.6695665E-005
0.1	1.8939317E-005
0.095	2.1383067E-005
0.09	2.40292E-005
0.085	2.6878444E-005
0.08	2.9930077E-005
0.075	3.3182058E-005
0.07	3.6631187E-005
0.065	4.0273272E-005
0.06	4.4103305E-005
0.055	4.8115616E-005
0.05	5.2304035E-005
0.045	5.6662025E-005
0.04	6.118281E-005
0.035	6.5859471E-005
0.03	7.0685044E-005
0.025	7.5652586E-005
0.02	8.0755237E-005
0.015	8.5986267E-005
0.01	9.1339107E-005
0.005	9.6807378E-005
-3.76435E-016	0.00010238491
-0.005	0.00010806575
-0.01	0.00011384416
-0.015	0.00011971465
-0.02	0.00012567193
-0.025	0.00013171095
-0.03	0.00013782685
-0.035	0.00014401501
-0.04	0.00015027097
-0.045	0.00015659049
-0.05	0.00016296947
-0.055	0.00016940401
-0.06	0.00017589035
-0.065	0.00018242487
-0.07	0.0001890041
-0.075	0.00019562467
-0.08	0.00020228336
-0.085	0.00020897702
-0.09	0.0002157026
-0.095	0.00022245714
-0.1	0.00022923775
-0.105	0.00023604161
-0.11	0.00024286596
-0.115	0.00024970807
-0.12	0.00025656525
-0.125	0.00026343485
-0.13	0.00027031423
-0.135	0.00027720077
-0.14	0.00028409184
-0.145	0.0002909848
-0.15	0.000297877
-0.155	0.00030476575
-0.16	0.00031164833
-0.165	0.00031852196
-0.17	0.00032538381
-0.175	0.00033223097
-0.18	0.00033906043
-0.185	0.00034586909
-0.19	0.00035265373
-0.195	0.00035941099
-0.2	0.00036613735
-0.205	0.00037282912
-0.21	0.00037948243
-0.215	0.00038609315
-0.22	0.00039265693
-0.225	0.00039916912
-0.23	0.00040562477
-0.235	0.00041201855
-0.24	0.00041834474
-0.245	0.00042459717
-0.25	0.00043076916
-0.255	0.00043685343
-0.26	0.00044284207
-0.265	0.00044872642
-0.27	0.00045449697
-0.275	0.00046014327
-0.28	0.00046565376
-0.285	0.00047101562
-0.29	0.00047621461
-0.295	0.00048123482
-0.3	0.00048605846
-0.305	0.0004906655
-0.31	0.00049503339
-0.315	0.00049913661
-0.32	0.00050294619
-0.325	0.0005064292
-0.33	0.00050954804
-0.335	0.00051225975
-0.34	0.00051451519
-0.345	0.00051625816
-0.35	0.00051742453
-0.355	0.00051794154
-0.36	0.00051772738
-0.365	0.00051669163
-0.37	0.00051473706
-0.375	0.00051176406
-0.38	0.00050767884
-0.385	0.00050240753
-0.39	0.00049591698
-0.395	0.00048824123
-0.4	0.0004795071
-0.405	0.00046994543
-0.41	0.00045987235
-0.415	0.00044963626
-0.42	0.00043955003
-0.425	0.00042984222
-0.43	0.00042064591
-0.435	0.00041201611
-0.44	0.00040395558
-0.445	0.00039643697
-0.45	0.00038941869
-0.455	0.00038285493
-0.46	0.00037670099
-0.465	0.00037091569
-0.47	0.00036546209
-0.475	0.00036030755
-0.48	0.0003554234
-0.485	0.00035078451
-0.49	0.00034636883
-0.495	0.00034215702
-0.5	0.00033813203
-0.495	0.00033365732
-0.49	0.000329964
-0.485	0.00032627998
-0.48	0.00032276602
-0.475	0.00031940776
-0.47	0.00031617807
-0.465	0.00031306125
-0.46	0.00031004731
-0.455	0.00030712838
-0.45	0.0003042975
-0.445	0.00030154834
-0.44	0.00029887495
-0.435	0.00029627183
-0.43	0.00029373407
-0.425	0.00029125719
-0.42	0.00028883693
-0.415	0.00028646921
-0.41	0.00028415021
-0.405	0.00028187631
-0.4	0.00027964402
-0.395	0.00027744994
-0.39	0.00027529078
-0.385	0.00027316329
-0.38	0.00027106431
-0.375	0.00026899066
-0.37	0.0002669392
-0.365	0.00026490674
-0.36	0.00026289009
-0.355	0.000260886
-0.35	0.00025889118
-0.345	0.00025690223
-0.34	0.00025491568
-0.335	0.00025292795
-0.33	0.00025093534
-0.325	0.00024893403
-0.32	0.00024692005
-0.315	0.00024488931
-0.31	0.00024283753
-0.305	0.00024076032
-0.3	0.00023865311
-0.295	0.0002365112
-0.29	0.00023432973
-0.285	0.00023210375
-0.28	0.00022982817
-0.275	0.00022749785
-0.27	0.00022510756
-0.265	0.00022265208
-0.26	0.00022012618
-0.255	0.00021752471
-0.25	0.00021484262
-0.245	0.00021207499
-0.24	0.00020921713
-0.235	0.00020626458
-0.23	0.00020321317
-0.225	0.00020005908
-0.22	0.00019679884
-0.215	0.00019342941
-0.21	0.00018994818
-0.205	0.00018635298
-0.2	0.00018264212
-0.195	0.00017881436
-0.19	0.00017486894
-0.185	0.00017080554
-0.18	0.00016662429
-0.175	0.00016232572
-0.17	0.00015791077
-0.165	0.00015338073
-0.16	0.0001487372
-0.155	0.0001439821
-0.15	0.0001391176
-0.145	0.00013414609
-0.14	0.00012907016
-0.135	0.00012389258
-0.13	0.00011861623
-0.125	0.0001132441
-0.12	0.00010777927
-0.115	0.00010222487
-0.11	9.6584083E-005
-0.105	9.0860091E-005
-0.1	8.5056094E-005
-0.095	7.9175282E-005
-0.09	7.3220825E-005
-0.085	6.7195863E-005
-0.08	6.1103498E-005
-0.075	5.494679E-005
-0.07	4.8728752E-005
-0.065	4.2452344E-005
-0.06	3.6120474E-005
-0.055	2.9735995E-005
-0.05	2.3301704E-005
-0.045	1.6820344E-005
-0.04	1.0294605E-005
-0.035	3.7271249E-006
-0.03	-2.8795089E-006
-0.025	-9.5227553E-006
-0.02	-1.6200118E-005
-0.015	-2.290914E-005
-0.01	-2.9647402E-005
-0.005	-3.6412519E-005
-2.89699E-016	-4.3202131E-005
0.005	-5.0013905E-005
0.01	-5.6845527E-005
0.015	-6.3694695E-005
0.02	-7.0559118E-005
0.025	-7.7436508E-005
0.03	-8.4324573E-005
0.035	-9.1221013E-005
0.04	-9.8123512E-005
0.045	-0.00010502973
0.05	-0.00011193731
0.055	-0.00011884383
0.06	-0.00012574685
0.065	-0.00013264387
0.07	-0.0001395323
0.075	-0.00014640951
0.08	-0.00015327276
0.085	-0.00016011922
0.09	-0.00016694594
0.095	-0.00017374986
0.1	-0.00018052775
0.105	-0.00018727624
0.11	-0.00019399177
0.115	-0.00020067056
0.12	-0.00020730862
0.125	-0.00021390169
0.13	-0.00022044522
0.135	-0.00022693434
0.14	-0.00023336379
0.145	-0.00023972791
0.15	-0.00024602057
0.155	-0.00025223511
0.16	-0.00025836425
0.165	-0.00026440004
0.17	-0.00027033376
0.175	-0.00027615578
0.18	-0.00028185547
0.185	-0.00028742101
0.19	-0.00029283926
0.195	-0.00029809551
0.2	-0.00030317325
0.205	-0.00030805389
0.21	-0.0003127164
0.215	-0.00031713689
0.22	-0.00032128815
0.225	-0.00032513906
0.23	-0.00032865389
0.235	-0.00033179151
0.24	-0.00033450451
0.245	-0.00033673808
0.25	-0.00033842896
0.255	-0.00033950434
0.26	-0.00033988092
0.265	-0.00033946466
0.27	-0.00033815173
0.275	-0.00033583188
0.28	-0.00033239606
0.285	-0.00032775059
0.29	-0.00032184019
0.295	-0.00031467978
0.3	-0.00030638871
0.305	-0.00029721011
0.31	-0.0002874928
0.315	-0.0002776262
0.32	-0.00026795427
0.325	-0.0002587163
0.33	-0.00025003934
0.335	-0.00024196497
0.34	-0.00023448183
0.345	-0.00022755066
0.35	-0.00022112098
0.355	-0.00021514106
0.36	-0.00020956257
0.365	-0.00020434228
0.37	-0.00019944221
0.375	-0.00019482933
0.38	-0.00019047497
0.385	-0.00018635425
0.39	-0.00018244553
0.395	-0.00017872991
0.4	-0.00017519086
0.405	-0.00017181381
0.41	-0.00016858591
0.415	-0.00016549575
0.42	-0.00016253317
0.425	-0.00015968907
0.43	-0.00015695529
0.435	-0.00015432448
0.44	-0.00015178997
0.445	-0.00014934572
0.45	-0.00014698625
0.455	-0.00014470654
0.46	-0.00014250199
0.465	-0.0001403684
0.47	-0.00013830188
0.475	-0.00013629889
0.48	-0.00013435611
0.485	-0.0001324705
0.49	-0.00013063924
0.495	-0.00012885971
0.5	-0.00012712945
