simulated data
number of E (V), I (A) couples: 400
0.495	1.6740283E-011
0.49	4.2802567E-012
0.485	9.5213432E-012
0.48	1.0389099E-011
0.475	1.1915277E-011
0.47	1.4112619E-011
0.465	1.6934162E-011
0.46	2.0416282E-011
0.455	2.4668949E-011
0.45	2.9850167E-011
0.445	3.6158204E-011
0.44	4.3837675E-011
0.435	5.3182329E-011
0.43	6.4543655E-011
0.425	7.8351205E-011
0.42	9.5131806E-011
0.415	1.1552484E-010
0.41	1.4030432E-010
0.405	1.7041088E-010
0.4	2.0698882E-010
0.395	2.514283E-010
0.39	3.0541724E-010
0.385	3.7100583E-010
0.38	4.5068463E-010
0.375	5.4747885E-010
0.37	6.6506273E-010
0.365	8.0789869E-010
0.36	9.8140625E-010
0.355	1.1921671E-009
0.35	1.448174E-009
0.345	1.7591326E-009
0.34	2.1368278E-009
0.335	2.5955686E-009
0.33	3.1527276E-009
0.325	3.8293946E-009
0.32	4.6511706E-009
0.315	5.6491293E-009
0.31	6.8609829E-009
0.305	8.3324953E-009
0.3	1.0119193E-008
0.295	1.228844E-008
0.29	1.4921943E-008
0.285	1.8118791E-008
0.28	2.1999126E-008
0.275	2.6708581E-008
0.27	3.2423642E-008
0.265	3.9358118E-008
0.26	4.7770946E-008
0.255	5.7975596E-008
0.25	7.0351383E-008
0.245	8.5357068E-008
0.24	1.0354719E-007
0.235	1.255916E-007
0.23	1.5229886E-007
0.225	1.8464413E-007
0.22	2.2380232E-007
0.215	2.7118742E-007
0.21	3.2849897E-007
0.205	3.9777662E-007
0.2	4.8146409E-007
0.195	5.8248332E-007
0.19	7.0432013E-007
0.185	8.5112208E-007
0.18	1.0278091E-006
0.175	1.2401968E-006
0.17	1.4951319E-006
0.165	1.8006375E-006
0.16	2.1660651E-006
0.155	2.6022479E-006
0.15	3.1216476E-006
0.145	3.7384852E-006
0.14	4.4688426E-006
0.135	5.3307193E-006
0.13	6.3440291E-006
0.125	7.5305181E-006
0.12	8.9135892E-006
0.115	1.0518022E-005
0.11	1.2369585E-005
0.105	1.4494537E-005
0.1	1.6919046E-005
0.095	1.966854E-005
0.09	2.2767024E-005
0.085	2.6236416E-005
0.08	3.0095935E-005
0.075	3.4361572E-005
0.07	3.9045694E-005
0.065	4.4156782E-005
0.06	4.9699314E-005
0.055	5.5673792E-005
0.05	6.2076887E-005
0.045	6.8901687E-005
0.04	7.6138011E-005
0.035	8.3772776E-005
0.03	9.1790377E-005
0.025	0.00010017307
0.02	0.00010890132
0.015	0.00011795416
0.01	0.00012730946
0.005	0.00013694416
-3.76435E-016	0.00014683451
-0.005	0.00015695622
-0.01	0.00016728452
-0.015	0.00017779432
-0.02	0.00018846018
-0.025	0.00019925634
-0.03	0.00021015668
-0.035	0.00022113469
-0.04	0.00023216333
-0.045	0.00024321497
-0.05	0.00025426123
-0.055	0.00026527283
-0.06	0.00027621935
-0.065	0.00028706908
-0.07	0.00029778876
-0.075	0.00030834325
-0.08	0.0003186953
-0.085	0.00032880515
-0.09	0.00033863019
-0.095	0.00034812452
-0.1	0.00035723857
-0.105	0.00036591859
-0.11	0.00037410622
-0.115	0.00038173808
-0.12	0.00038874538
-0.125	0.00039505376
-0.13	0.00040058333
-0.135	0.00040524914
-0.14	0.00040896234
-0.145	0.00041163228
-0.15	0.00041316993
-0.155	0.0004134931
-0.16	0.00041253387
-0.165	0.00041024817
-0.17	0.00040662733
-0.175	0.00040170992
-0.18	0.00039559122
-0.185	0.00038842665
-0.19	0.00038042521
-0.195	0.00037183194
-0.2	0.00036290186
-0.205	0.00035387243
-0.21	0.00034494216
-0.215	0.00033626001
-0.22	0.00032792539
-0.225	0.00031999522
-0.23	0.00031249385
-0.235	0.00030542291
-0.24	0.00029876951
-0.245	0.00029251242
-0.25	0.00028662632
-0.255	0.00028108446
-0.26	0.0002758604
-0.265	0.00027092884
-0.27	0.0002662662
-0.275	0.00026185071
-0.28	0.00025766251
-0.285	0.00025368354
-0.29	0.00024989744
-0.295	0.00024628942
-0.3	0.00024284609
-0.305	0.00023955534
-0.31	0.00023640619
-0.315	0.00023338869
-0.32	0.00023049381
-0.325	0.00022771332
-0.33	0.00022503973
-0.335	0.00022246619
-0.34	0.00021998644
-0.345	0.00021759475
-0.35	0.00021528585
-0.355	0.0002130549
-0.36	0.00021089744
-0.365	0.00020880937
-0.37	0.00020678688
-0.375	0.00020482646
-0.38	0.00020292485
-0.385	0.00020107904
-0.39	0.00019928622
-0.395	0.00019754378
-0.4	0.0001958493
-0.405	0.0001942005
-0.41	0.00019259528
-0.415	0.00019103164
-0.42	0.00018950775
-0.425	0.00018802188
-0.43	0.00018657238
-0.435	0.00018515774
-0.44	0.00018377652
-0.445	0.00018242737
-0.45	0.00018110901
-0.455	0.00017982025
-0.46	0.00017855995
-0.465	0.00017732704
-0.47	0.0001761205
-0.475	0.00017493938
-0.48	0.00017378276
-0.485	0.00017264979
-0.49	0.00017153964
-0.495	0.00017045153
-0.5	0.00016938472
-0.495	0.00016832324
-0.49	0.00016729648
-0.485	0.00016628494
-0.48	0.00016529303
-0.475	0.0001643197
-0.47	0.00016336402
-0.465	0.00016242531
-0.46	0.00016150296
-0.455	0.00016059643
-0.45	0.00015970522
-0.445	0.00015882884
-0.44	0.0001579668
-0.435	0.00015711864
-0.43	0.00015628393
-0.425	0.00015546222
-0.42	0.0001546531
-0.415	0.00015385618
-0.41	0.00015307103
-0.405	0.00015229729
-0.4	0.00015153456
-0.395	0.00015078247
-0.39	0.00015004064
-0.385	0.0001493087
-0.38	0.00014858628
-0.375	0.00014787301
-0.37	0.00014716852
-0.365	0.00014647243
-0.36	0.00014578436
-0.355	0.00014510392
-0.35	0.00014443071
-0.345	0.00014376432
-0.34	0.00014310433
-0.335	0.0001424503
-0.33	0.00014180176
-0.325	0.00014115823
-0.32	0.0001405192
-0.315	0.0001398841
-0.31	0.00013925237
-0.305	0.00013862337
-0.3	0.00013799641
-0.295	0.00013737077
-0.29	0.00013674563
-0.285	0.00013612011
-0.28	0.00013549323
-0.275	0.00013486391
-0.27	0.00013423096
-0.265	0.00013359305
-0.26	0.00013294868
-0.255	0.00013229617
-0.25	0.00013163365
-0.245	0.00013095899
-0.24	0.00013026978
-0.235	0.00012956332
-0.23	0.00012883651
-0.225	0.00012808586
-0.22	0.0001273074
-0.215	0.0001264966
-0.21	0.00012564834
-0.205	0.00012475681
-0.2	0.00012381541
-0.195	0.00012281668
-0.19	0.00012175223
-0.185	0.00012061263
-0.18	0.0001193873
-0.175	0.00011806452
-0.17	0.00011663128
-0.165	0.00011507333
-0.16	0.00011337514
-0.155	0.00011151994
-0.15	0.00010948988
-0.145	0.00010726607
-0.14	0.00010482892
-0.135	0.00010215832
-0.13	9.9234002E-005
-0.125	9.6035939E-005
-0.12	9.2544742E-005
-0.115	8.87421E-005
-0.11	8.4611212E-005
-0.105	8.0137194E-005
-0.1	7.5307435E-005
-0.095	7.0111894E-005
-0.09	6.4543318E-005
-0.085	5.8597375E-005
-0.08	5.2272702E-005
-0.075	4.5570875E-005
-0.07	3.8496306E-005
-0.065	3.1056083E-005
-0.06	2.3259768E-005
-0.055	1.5119165E-005
-0.05	6.6480788E-006
-0.045	-2.137932E-006
-0.04	-1.1221791E-005
-0.035	-2.058512E-005
-0.03	-3.0208436E-005
-0.025	-4.0071314E-005
-0.02	-5.0152527E-005
-0.015	-6.0430151E-005
-0.01	-7.0881636E-005
-0.005	-8.1483855E-005
-2.89699E-016	-9.2213115E-005
0.005	-0.00010304514
0.01	-0.00011395504
0.015	-0.00012491723
0.02	-0.00013590532
0.025	-0.00014689203
0.03	-0.000157849
0.035	-0.00016874665
0.04	-0.0001795539
0.045	-0.00019023801
0.05	-0.00020076423
0.055	-0.00021109556
0.06	-0.0002211923
0.065	-0.00023101174
0.07	-0.00024050767
0.075	-0.00024962992
0.08	-0.00025832386
0.085	-0.00026652986
0.09	-0.00027418279
0.095	-0.00028121154
0.1	-0.00028753876
0.105	-0.00029308075
0.11	-0.00029774783
0.115	-0.00030144548
0.12	-0.00030407644
0.125	-0.00030554442
0.13	-0.0003057599
0.135	-0.0003046486
0.14	-0.00030216272
0.145	-0.0002982947
0.15	-0.00029309144
0.155	-0.00028666554
0.16	-0.00027919845
0.165	-0.0002709308
0.17	-0.00026213871
0.175	-0.00025310088
0.18	-0.00024406625
0.185	-0.00023523203
0.19	-0.00022673614
0.195	-0.00021866181
0.2	-0.00021104856
0.205	-0.00020390474
0.21	-0.00019721855
0.215	-0.00019096658
0.22	-0.00018511968
0.225	-0.00017964676
0.23	-0.00017451701
0.235	-0.00016970114
0.24	-0.00016517198
0.245	-0.00016090467
0.25	-0.00015687669
0.255	-0.00015306775
0.26	-0.0001494596
0.265	-0.00014603589
0.27	-0.00014278189
0.275	-0.00013968441
0.28	-0.00013673157
0.285	-0.00013391265
0.29	-0.000131218
0.295	-0.00012863887
0.3	-0.00012616734
0.305	-0.00012379619
0.31	-0.00012151888
0.315	-0.00011932943
0.32	-0.00011722237
0.325	-0.00011519268
0.33	-0.00011323579
0.335	-0.00011134747
0.34	-0.00010952382
0.345	-0.00010776126
0.35	-0.00010605648
0.355	-0.00010440642
0.36	-0.00010280823
0.365	-0.00010125928
0.37	-9.9757116E-005
0.375	-9.8299464E-005
0.38	-9.6884199E-005
0.385	-9.550934E-005
0.39	-9.4173035E-005
0.395	-9.2873552E-005
0.4	-9.160927E-005
0.405	-9.0378668E-005
0.41	-8.9180318E-005
0.415	-8.8012878E-005
0.42	-8.6875086E-005
0.425	-8.5765752E-005
0.43	-8.4683754E-005
0.435	-8.3628033E-005
0.44	-8.2597587E-005
0.445	-8.159147E-005
0.45	-8.0608785E-005
0.455	-7.9648682E-005
0.46	-7.8710353E-005
0.465	-7.7793033E-005
0.47	-7.6895993E-005
0.475	-7.601854E-005
0.48	-7.5160015E-005
0.485	-7.4319788E-005
0.49	-7.3497261E-005
0.495	-7.269186E-005
0.5	-7.1903038E-005
