simulated data
number of E (V), I (A) couples: 400
0.495	5.0830382E-012
0.49	4.8396356E-012
0.485	5.0829303E-012
0.48	5.5868528E-012
0.475	6.2153052E-012
0.47	6.941814E-012
0.465	7.7787604E-012
0.46	8.7391032E-012
0.455	9.8313221E-012
0.45	1.1063852E-011
0.445	1.2447703E-011
0.44	1.3996629E-011
0.435	1.5726516E-011
0.43	1.7654942E-011
0.425	1.9801219E-011
0.42	2.2186719E-011
0.415	2.4835136E-011
0.41	2.7772646E-011
0.405	3.1028093E-011
0.4	3.4633278E-011
0.395	3.8623268E-011
0.39	4.3036734E-011
0.385	4.7916301E-011
0.38	5.3308959E-011
0.375	5.9266506E-011
0.37	6.5846049E-011
0.365	7.3110545E-011
0.36	8.11294E-011
0.355	8.9979131E-011
0.35	9.9744092E-011
0.345	1.1051728E-010
0.34	1.2240123E-010
0.335	1.3550896E-010
0.33	1.4996507E-010
0.325	1.6590695E-010
0.32	1.8348601E-010
0.315	2.0286921E-010
0.31	2.2424057E-010
0.305	2.4780296E-010
0.3	2.7378001E-010
0.295	3.0241825E-010
0.29	3.3398943E-010
0.285	3.6879309E-010
0.28	4.0715945E-010
0.275	4.4945247E-010
0.27	4.9607338E-010
0.265	5.4746443E-010
0.26	6.0411312E-010
0.255	6.6655678E-010
0.25	7.3538775E-010
0.245	8.1125888E-010
0.24	8.9488985E-010
0.235	9.8707388E-010
0.23	1.0886853E-009
0.225	1.200688E-009
0.22	1.3241442E-009
0.215	1.4602248E-009
0.21	1.6102206E-009
0.205	1.7755542E-009
0.2	1.9577936E-009
0.195	2.1586674E-009
0.19	2.3800807E-009
0.185	2.6241334E-009
0.18	2.8931402E-009
0.175	3.1896524E-009
0.17	3.5164821E-009
0.165	3.876729E-009
0.16	4.2738097E-009
0.155	4.7114898E-009
0.15	5.1939204E-009
0.145	5.7256765E-009
0.14	6.3118009E-009
0.135	6.9578521E-009
0.13	7.6699566E-009
0.125	8.4548673E-009
0.12	9.3200271E-009
0.115	1.027364E-008
0.11	1.1324749E-008
0.105	1.2483319E-008
0.1	1.3760337E-008
0.095	1.516791E-008
0.09	1.6719384E-008
0.085	1.8429467E-008
0.08	2.0314371E-008
0.075	2.2391965E-008
0.07	2.4681943E-008
0.065	2.720601E-008
0.06	2.998809E-008
0.055	3.3054548E-008
0.05	3.6434445E-008
0.045	4.0159807E-008
0.04	4.4265931E-008
0.035	4.8791717E-008
0.03	5.3780036E-008
0.025	5.9278133E-008
0.02	6.5338074E-008
0.015	7.2017239E-008
0.01	7.9378855E-008
0.005	8.74926E-008
-3.76435E-016	9.6435252E-008
-0.005	1.0629141E-007
-0.01	1.171543E-007
-0.015	1.2912664E-007
-0.02	1.4232158E-007
-0.025	1.568638E-007
-0.03	1.7289067E-007
-0.035	1.905535E-007
-0.04	2.1001896E-007
-0.045	2.3147066E-007
-0.05	2.5511082E-007
-0.055	2.8116213E-007
-0.06	3.0986985E-007
-0.065	3.4150402E-007
-0.07	3.7636199E-007
-0.075	4.1477107E-007
-0.08	4.5709157E-007
-0.085	5.0372003E-007
-0.09	5.5509283E-007
-0.095	6.1169007E-007
-0.1	6.7403991E-007
-0.105	7.4272318E-007
-0.11	8.183786E-007
-0.115	9.0170825E-007
-0.12	9.9348374E-007
-0.125	1.0945528E-006
-0.13	1.2058465E-006
-0.135	1.3283871E-006
-0.14	1.4632964E-006
-0.145	1.611805E-006
-0.15	1.7752623E-006
-0.155	1.9551469E-006
-0.16	2.1530783E-006
-0.165	2.370829E-006
-0.17	2.6103377E-006
-0.175	2.8737231E-006
-0.18	3.1632989E-006
-0.185	3.481589E-006
-0.19	3.831344E-006
-0.195	4.2155583E-006
-0.2	4.6374874E-006
-0.205	5.1006659E-006
-0.21	5.6089258E-006
-0.215	6.1664149E-006
-0.22	6.7776147E-006
-0.225	7.4473575E-006
-0.23	8.1808433E-006
-0.235	8.9836545E-006
-0.24	9.8617684E-006
-0.245	1.0821568E-005
-0.25	1.1869849E-005
-0.255	1.3013822E-005
-0.26	1.426111E-005
-0.265	1.5619742E-005
-0.27	1.7098137E-005
-0.275	1.8705084E-005
-0.28	2.044971E-005
-0.285	2.2341442E-005
-0.29	2.438996E-005
-0.295	2.6605136E-005
-0.3	2.8996972E-005
-0.305	3.1575517E-005
-0.31	3.4350787E-005
-0.315	3.7332665E-005
-0.32	4.0530809E-005
-0.325	4.3954542E-005
-0.33	4.7612747E-005
-0.335	5.1513759E-005
-0.34	5.5665259E-005
-0.345	6.0074176E-005
-0.35	6.4746592E-005
-0.355	6.9687661E-005
-0.36	7.4901534E-005
-0.365	8.0391306E-005
-0.37	8.6158971E-005
-0.375	9.2205394E-005
-0.38	9.85303E-005
-0.385	0.00010513228
-0.39	0.0001120088
-0.395	0.00011915626
-0.4	0.00012656998
-0.405	0.00013424433
-0.41	0.00014217271
-0.415	0.00015034768
-0.42	0.00015876098
-0.425	0.00016740364
-0.43	0.00017626601
-0.435	0.00018533786
-0.44	0.00019460841
-0.445	0.00020406642
-0.45	0.00021370025
-0.455	0.00022349785
-0.46	0.00023344687
-0.465	0.00024353464
-0.47	0.00025374826
-0.475	0.00026407454
-0.48	0.00027450009
-0.485	0.00028501126
-0.49	0.00029559419
-0.495	0.00030623478
-0.5	0.0003169187
-0.495	0.00030104149
-0.49	0.00028626321
-0.485	0.00027228336
-0.48	0.0002589072
-0.475	0.00024606071
-0.47	0.00023371825
-0.465	0.00022185842
-0.46	0.00021045645
-0.455	0.00019948913
-0.45	0.00018893811
-0.445	0.00017878936
-0.44	0.00016903139
-0.435	0.00015965396
-0.43	0.00015064775
-0.425	0.0001420044
-0.42	0.0001337164
-0.415	0.00012577674
-0.41	0.00011817872
-0.405	0.00011091583
-0.4	0.00010398167
-0.395	9.7369849E-005
-0.39	9.107383E-005
-0.385	8.5086908E-005
-0.38	7.9402139E-005
-0.375	7.4012305E-005
-0.37	6.8909876E-005
-0.365	6.4086996E-005
-0.36	5.9535482E-005
-0.355	5.5246828E-005
-0.35	5.1212232E-005
-0.345	4.7422614E-005
-0.34	4.3868663E-005
-0.335	4.0540871E-005
-0.33	3.7429587E-005
-0.325	3.4525063E-005
-0.32	3.1817512E-005
-0.315	2.9297156E-005
-0.31	2.6954283E-005
-0.305	2.4779291E-005
-0.3	2.2762741E-005
-0.295	2.0895392E-005
-0.29	1.9168247E-005
-0.285	1.7572579E-005
-0.28	1.6099963E-005
-0.275	1.4742298E-005
-0.27	1.3491823E-005
-0.265	1.2341129E-005
-0.26	1.1283172E-005
-0.255	1.031127E-005
-0.25	9.4191102E-006
-0.245	8.60074E-006
-0.24	7.8505644E-006
-0.235	7.163337E-006
-0.23	6.5341491E-006
-0.225	5.9584187E-006
-0.22	5.4318767E-006
-0.215	4.9505533E-006
-0.21	4.5107633E-006
-0.205	4.1090912E-006
-0.2	3.7423764E-006
-0.195	3.407698E-006
-0.19	3.1023601E-006
-0.185	2.8238775E-006
-0.18	2.5699618E-006
-0.175	2.3385077E-006
-0.17	2.1275807E-006
-0.165	1.935404E-006
-0.16	1.7603476E-006
-0.155	1.6009169E-006
-0.15	1.4557428E-006
-0.145	1.3235714E-006
-0.14	1.2032552E-006
-0.135	1.0937448E-006
-0.13	9.9408066E-007
-0.125	9.0338608E-007
-0.12	8.2086012E-007
-0.115	7.4577142E-007
-0.11	6.7745238E-007
-0.105	6.1529371E-007
-0.1	5.587395E-007
-0.095	5.0728267E-007
-0.09	4.6046069E-007
-0.085	4.1785176E-007
-0.08	3.7907122E-007
-0.075	3.4376832E-007
-0.07	3.1162318E-007
-0.065	2.8234404E-007
-0.06	2.5566479E-007
-0.055	2.3134258E-007
-0.05	2.0915577E-007
-0.045	1.8890193E-007
-0.04	1.703961E-007
-0.035	1.5346914E-007
-0.03	1.3796622E-007
-0.025	1.2374547E-007
-0.02	1.1067669E-007
-0.015	9.8640195E-008
-0.01	8.7525756E-008
-0.005	7.7231591E-008
-2.89699E-016	6.7663466E-008
0.005	5.8733836E-008
0.01	5.0361063E-008
0.015	4.2468679E-008
0.02	3.4984692E-008
0.025	2.7840939E-008
0.03	2.0972472E-008
0.035	1.4316971E-008
0.04	7.8141773E-009
0.045	1.4053588E-009
0.05	-4.9672252E-009
0.055	-1.136084E-008
0.06	-1.7832791E-008
0.065	-2.4440935E-008
0.07	-3.1244198E-008
0.075	-3.8303102E-008
0.08	-4.5680303E-008
0.085	-5.3441145E-008
0.09	-6.1654242E-008
0.095	-7.0392082E-008
0.1	-7.9731666E-008
0.105	-8.9755184E-008
0.11	-1.0055074E-007
0.115	-1.1221311E-007
0.12	-1.2484459E-007
0.125	-1.3855585E-007
0.13	-1.5346693E-007
0.135	-1.6970827E-007
0.14	-1.8742178E-007
0.145	-2.0676215E-007
0.15	-2.2789808E-007
0.155	-2.5101376E-007
0.16	-2.7631041E-007
0.165	-3.0400798E-007
0.17	-3.3434698E-007
0.175	-3.6759047E-007
0.18	-4.0402624E-007
0.185	-4.4396912E-007
0.19	-4.8776357E-007
0.195	-5.357864E-007
0.2	-5.8844978E-007
0.205	-6.4620443E-007
0.21	-7.0954309E-007
0.215	-7.7900426E-007
0.22	-8.5517619E-007
0.225	-9.3870119E-007
0.23	-1.0302802E-006
0.235	-1.1306776E-006
0.24	-1.2407264E-006
0.245	-1.3613338E-006
0.25	-1.4934866E-006
0.255	-1.6382576E-006
0.26	-1.7968112E-006
0.265	-1.9704102E-006
0.27	-2.1604219E-006
0.275	-2.3683249E-006
0.28	-2.5957148E-006
0.285	-2.8443111E-006
0.29	-3.1159624E-006
0.295	-3.4126516E-006
0.3	-3.7365005E-006
0.305	-4.0897729E-006
0.31	-4.4748765E-006
0.315	-4.8943629E-006
0.32	-5.3509258E-006
0.325	-5.847396E-006
0.33	-6.3867334E-006
0.335	-6.9720158E-006
0.34	-7.6064226E-006
0.345	-8.293214E-006
0.35	-9.0357044E-006
0.355	-9.8372301E-006
0.36	-1.0701109E-005
0.365	-1.1630596E-005
0.37	-1.2628824E-005
0.375	-1.3698748E-005
0.38	-1.4843069E-005
0.385	-1.6064158E-005
0.39	-1.7363974E-005
0.395	-1.8743964E-005
0.4	-2.0204972E-005
0.405	-2.1747137E-005
0.41	-2.3369785E-005
0.415	-2.5071329E-005
0.42	-2.6849168E-005
0.425	-2.8699589E-005
0.43	-3.0617679E-005
0.435	-3.2597251E-005
0.44	-3.4630782E-005
0.445	-3.6709362E-005
0.45	-3.8822681E-005
0.455	-4.0959019E-005
0.46	-4.3105281E-005
0.465	-4.5247047E-005
0.47	-4.7368671E-005
0.475	-4.9453401E-005
0.48	-5.1483547E-005
0.485	-5.3440696E-005
0.49	-5.530596E-005
0.495	-5.7060289E-005
0.5	-5.8684824E-005
