simulated data
number of E (V), I (A) couples: 400
0.495	1.1840297E-011
0.49	3.0244778E-012
0.485	6.7347313E-012
0.48	7.3467355E-012
0.475	8.42653E-012
0.47	9.9806806E-012
0.465	1.1976336E-011
0.46	1.4439269E-011
0.455	1.7447299E-011
0.45	2.1112231E-011
0.445	2.557437E-011
0.44	3.1006832E-011
0.435	3.7617522E-011
0.43	4.5655239E-011
0.425	5.5424068E-011
0.42	6.7297001E-011
0.415	8.172677E-011
0.41	9.9261524E-011
0.405	1.2056751E-010
0.4	1.4645537E-010
0.395	1.7791009E-010
0.39	2.1612792E-010
0.385	2.6256214E-010
0.38	3.1897869E-010
0.375	3.8752316E-010
0.37	4.7080231E-010
0.365	5.7198312E-010
0.36	6.9491332E-010
0.355	8.4426771E-010
0.35	1.0257259E-009
0.345	1.246188E-009
0.34	1.5140376E-009
0.335	1.8394596E-009
0.33	2.2348282E-009
0.325	2.7151766E-009
0.32	3.2987689E-009
0.315	4.0077941E-009
0.31	4.8692087E-009
0.305	5.9157616E-009
0.3	7.1872377E-009
0.295	8.7319686E-009
0.29	1.0608668E-008
0.285	1.2888658E-008
0.28	1.5658579E-008
0.275	1.9023669E-008
0.27	2.3111755E-008
0.265	2.8078092E-008
0.26	3.4111234E-008
0.255	4.1440161E-008
0.25	5.0342916E-008
0.245	6.1157081E-008
0.24	7.4292466E-008
0.235	9.0246479E-008
0.23	1.0962272E-007
0.225	1.3315348E-007
0.22	1.6172689E-007
0.215	1.9641968E-007
0.21	2.3853669E-007
0.205	2.8965825E-007
0.2	3.5169717E-007
0.195	4.2696677E-007
0.19	5.1826209E-007
0.185	6.2895617E-007
0.18	7.6311392E-007
0.175	9.2562562E-007
0.17	1.1223624E-006
0.165	1.3603554E-006
0.16	1.6480001E-006
0.155	1.9952851E-006
0.15	2.4140433E-006
0.145	2.918221E-006
0.14	3.5241552E-006
0.135	4.2508453E-006
0.13	5.1201981E-006
0.125	6.1572199E-006
0.12	7.3901196E-006
0.115	8.8502833E-006
0.11	1.057208E-005
0.105	1.2592455E-005
0.1	1.4950292E-005
0.095	1.7685525E-005
0.09	2.0838022E-005
0.085	2.44463E-005
0.08	2.8546136E-005
0.075	3.3169185E-005
0.07	3.8341715E-005
0.065	4.4083553E-005
0.06	5.0407328E-005
0.055	5.731804E-005
0.05	6.4812965E-005
0.045	7.2881859E-005
0.04	8.1507401E-005
0.035	9.0665803E-005
0.03	0.00010032751
0.025	0.00011045792
0.02	0.00012101808
0.015	0.00013196528
0.01	0.00014325356
0.005	0.00015483407
-3.76435E-016	0.0001666553
-0.005	0.00017866319
-0.01	0.00019080104
-0.015	0.00020300936
-0.02	0.00021522549
-0.025	0.00022738314
-0.03	0.00023941178
-0.035	0.00025123581
-0.04	0.00026277374
-0.045	0.00027393698
-0.05	0.00028462876
-0.055	0.0002947427
-0.06	0.00030416157
-0.065	0.00031275597
-0.07	0.00032038355
-0.075	0.000326889
-0.08	0.00033210565
-0.085	0.00033585987
-0.09	0.00033798
-0.095	0.00033831172
-0.1	0.00033674193
-0.105	0.00033323099
-0.11	0.00032784856
-0.115	0.00032080089
-0.12	0.00031243103
-0.125	0.0003031781
-0.13	0.00029350225
-0.135	0.00028380672
-0.14	0.00027439063
-0.145	0.00026544221
-0.15	0.00025705769
-0.155	0.00024926788
-0.16	0.00024206243
-0.165	0.00023540833
-0.17	0.00022926238
-0.175	0.00022357848
-0.18	0.0002183116
-0.185	0.00021341973
-0.19	0.00020886465
-0.195	0.0002046121
-0.2	0.00020063164
-0.205	0.00019689634
-0.21	0.00019338244
-0.215	0.00019006899
-0.22	0.00018693752
-0.225	0.0001839717
-0.23	0.00018115709
-0.235	0.00017848088
-0.24	0.00017593168
-0.245	0.00017349934
-0.25	0.0001711748
-0.255	0.00016894994
-0.26	0.00016681745
-0.265	0.00016477077
-0.27	0.00016280395
-0.275	0.00016091163
-0.28	0.00015908892
-0.285	0.00015733139
-0.29	0.00015563501
-0.295	0.00015399607
-0.3	0.00015241119
-0.305	0.00015087729
-0.31	0.00014939149
-0.315	0.00014795119
-0.32	0.00014655397
-0.325	0.00014519757
-0.33	0.00014387995
-0.335	0.00014259917
-0.34	0.00014135346
-0.345	0.00014014115
-0.35	0.00013896071
-0.355	0.0001378107
-0.36	0.00013668977
-0.365	0.00013559665
-0.37	0.00013453018
-0.375	0.00013348924
-0.38	0.0001324728
-0.385	0.00013147988
-0.39	0.00013050956
-0.395	0.00012956096
-0.4	0.00012863328
-0.405	0.00012772573
-0.41	0.00012683757
-0.415	0.00012596813
-0.42	0.00012511673
-0.425	0.00012428276
-0.43	0.00012346561
-0.435	0.00012266473
-0.44	0.00012187957
-0.445	0.00012110962
-0.45	0.00012035439
-0.455	0.00011961341
-0.46	0.00011888625
-0.465	0.00011817247
-0.47	0.00011747166
-0.475	0.00011678343
-0.48	0.00011610742
-0.485	0.00011544326
-0.49	0.0001147906
-0.495	0.00011414912
-0.5	0.0001135185
-0.495	0.00011289837
-0.49	0.00011228856
-0.485	0.00011168872
-0.48	0.00011109858
-0.475	0.0001105179
-0.47	0.00010994641
-0.465	0.00010938387
-0.46	0.00010883005
-0.455	0.00010828473
-0.45	0.00010774767
-0.445	0.00010721869
-0.44	0.00010669756
-0.435	0.0001061841
-0.43	0.00010567812
-0.425	0.00010517943
-0.42	0.00010468785
-0.415	0.00010420322
-0.41	0.00010372537
-0.405	0.00010325413
-0.4	0.00010278935
-0.395	0.00010233088
-0.39	0.00010187857
-0.385	0.00010143228
-0.38	0.00010099186
-0.375	0.00010055719
-0.37	0.00010012813
-0.365	9.970455E-005
-0.36	9.9286322E-005
-0.355	9.8873322E-005
-0.35	9.8465427E-005
-0.345	9.8062515E-005
-0.34	9.7664464E-005
-0.335	9.7271153E-005
-0.33	9.6882459E-005
-0.325	9.649826E-005
-0.32	9.6118428E-005
-0.315	9.5742833E-005
-0.31	9.5371339E-005
-0.305	9.5003802E-005
-0.3	9.464007E-005
-0.295	9.4279979E-005
-0.29	9.3923347E-005
-0.285	9.3569976E-005
-0.28	9.3219645E-005
-0.275	9.28721E-005
-0.27	9.2527057E-005
-0.265	9.2184184E-005
-0.26	9.1843099E-005
-0.255	9.1503352E-005
-0.25	9.1164417E-005
-0.245	9.0825671E-005
-0.24	9.0486374E-005
-0.235	9.0145646E-005
-0.23	8.9802436E-005
-0.225	8.9455486E-005
-0.22	8.9103288E-005
-0.215	8.8744034E-005
-0.21	8.837555E-005
-0.205	8.799523E-005
-0.2	8.7599942E-005
-0.195	8.7185927E-005
-0.19	8.674868E-005
-0.185	8.6282805E-005
-0.18	8.5781856E-005
-0.175	8.5238145E-005
-0.17	8.4642537E-005
-0.165	8.3984211E-005
-0.16	8.3250412E-005
-0.155	8.2426183E-005
-0.15	8.14941E-005
-0.145	8.0434021E-005
-0.14	7.9222874E-005
-0.135	7.7834514E-005
-0.13	7.6239682E-005
-0.125	7.440611E-005
-0.12	7.2298807E-005
-0.115	6.9880562E-005
-0.11	6.7112682E-005
-0.105	6.3955951E-005
-0.1	6.03718E-005
-0.095	5.6323602E-005
-0.09	5.1778022E-005
-0.085	4.670631E-005
-0.08	4.108544E-005
-0.075	3.4899012E-005
-0.07	2.8137841E-005
-0.065	2.0800241E-005
-0.06	1.2891985E-005
-0.055	4.4260102E-006
-0.05	-4.5780831E-006
-0.045	-1.409466E-005
-0.04	-2.409274E-005
-0.035	-3.4536685E-005
-0.03	-4.5386831E-005
-0.025	-5.6600034E-005
-0.02	-6.8130106E-005
-0.015	-7.9928113E-005
-0.01	-9.194255E-005
-0.005	-0.00010411937
-2.89699E-016	-0.00011640189
0.005	-0.00012873053
0.01	-0.00014104246
0.015	-0.00015327105
0.02	-0.00016534524
0.025	-0.00017718872
0.03	-0.000188719
0.035	-0.00019984627
0.04	-0.00021047224
0.045	-0.00022048878
0.05	-0.00022977669
0.055	-0.00023820456
0.06	-0.00024562819
0.065	-0.00025189098
0.07	-0.00025682628
0.075	-0.00026026279
0.08	-0.00026203501
0.085	-0.0002620006
0.09	-0.00026006613
0.095	-0.0002562203
0.1	-0.0002505679
0.105	-0.00024335079
0.11	-0.00023493768
0.115	-0.00022577359
0.12	-0.00021630246
0.125	-0.00020689678
0.13	-0.00019782215
0.135	-0.00018923885
0.14	-0.00018122341
0.145	-0.00017379454
0.15	-0.00016693552
0.155	-0.00016061084
0.16	-0.00015477697
0.165	-0.00014938862
0.17	-0.00014440211
0.175	-0.00013977691
0.18	-0.00013547626
0.185	-0.00013146726
0.19	-0.00012772069
0.195	-0.00012421072
0.2	-0.00012091452
0.205	-0.00011781198
0.21	-0.00011488531
0.215	-0.00011211882
0.22	-0.00010949858
0.225	-0.00010701225
0.23	-0.00010464884
0.235	-0.00010239855
0.24	-0.00010025262
0.245	-9.8203174E-005
0.25	-9.624316E-005
0.255	-9.4366207E-005
0.26	-9.2566559E-005
0.265	-9.0839004E-005
0.27	-8.9178809E-005
0.275	-8.7581667E-005
0.28	-8.6043652E-005
0.285	-8.4561175E-005
0.29	-8.3130947E-005
0.295	-8.1749955E-005
0.3	-8.0415424E-005
0.305	-7.9124803E-005
0.31	-7.7875735E-005
0.315	-7.6666044E-005
0.32	-7.5493714E-005
0.325	-7.4356876E-005
0.33	-7.3253795E-005
0.335	-7.2182856E-005
0.34	-7.1142555E-005
0.345	-7.0131489E-005
0.35	-6.9148347E-005
0.355	-6.8191902E-005
0.36	-6.7261005E-005
0.365	-6.6354578E-005
0.37	-6.5471608E-005
0.375	-6.4611141E-005
0.38	-6.3772281E-005
0.385	-6.2954181E-005
0.39	-6.2156041E-005
0.395	-6.1377108E-005
0.4	-6.0616666E-005
0.405	-5.9874039E-005
0.41	-5.9148583E-005
0.415	-5.8439692E-005
0.42	-5.7746784E-005
0.425	-5.706931E-005
0.43	-5.6406746E-005
0.435	-5.5758592E-005
0.44	-5.5124372E-005
0.445	-5.4503632E-005
0.45	-5.3895938E-005
0.455	-5.3300874E-005
0.46	-5.2718045E-005
0.465	-5.214707E-005
0.47	-5.1587586E-005
0.475	-5.1039243E-005
0.48	-5.0501708E-005
0.485	-4.997466E-005
0.49	-4.9457792E-005
0.495	-4.8950806E-005
0.5	-4.8453419E-005
