simulated data
number of E (V), I (A) couples: 400
0.495	1.2781903E-009
0.49	1.258403E-009
0.485	1.265996E-009
0.48	1.2680856E-009
0.475	1.2705806E-009
0.47	1.2742812E-009
0.465	1.2790485E-009
0.46	1.284909E-009
0.455	1.2920328E-009
0.45	1.3006682E-009
0.445	1.3111225E-009
0.44	1.32377E-009
0.435	1.3390549E-009
0.43	1.3575E-009
0.425	1.3797328E-009
0.42	1.4065099E-009
0.415	1.4387326E-009
0.41	1.4774684E-009
0.405	1.5239841E-009
0.4	1.5797826E-009
0.395	1.6466407E-009
0.39	1.7266527E-009
0.385	1.8222817E-009
0.38	1.9364184E-009
0.375	2.0724455E-009
0.37	2.2343104E-009
0.365	2.4266054E-009
0.36	2.654657E-009
0.355	2.9246237E-009
0.35	3.2436026E-009
0.345	3.6197451E-009
0.34	4.0623811E-009
0.335	4.5821526E-009
0.33	5.1911559E-009
0.325	5.9030924E-009
0.32	6.7334279E-009
0.315	7.6995605E-009
0.31	8.8209971E-009
0.305	1.011954E-008
0.3	1.161948E-008
0.295	1.3347809E-008
0.29	1.5334432E-008
0.285	1.7612408E-008
0.28	2.0218199E-008
0.275	2.3191944E-008
0.27	2.6577752E-008
0.265	3.0424037E-008
0.26	3.4783871E-008
0.255	3.9715383E-008
0.25	4.5282212E-008
0.245	5.1553991E-008
0.24	5.8606912E-008
0.235	6.6524337E-008
0.23	7.5397496E-008
0.225	8.5326253E-008
0.22	9.6419968E-008
0.215	1.0879846E-007
0.21	1.2259304E-007
0.205	1.3794775E-007
0.2	1.5502061E-007
0.195	1.7398505E-007
0.19	1.9503157E-007
0.185	2.1836942E-007
0.18	2.4422855E-007
0.175	2.7286174E-007
0.17	3.045469E-007
0.165	3.3958963E-007
0.16	3.7832602E-007
0.155	4.2112568E-007
0.15	4.6839513E-007
0.145	5.2058141E-007
0.14	5.7817611E-007
0.135	6.417197E-007
0.13	7.1180631E-007
0.125	7.8908888E-007
0.12	8.7428483E-007
0.115	9.681821E-007
0.11	1.0716459E-006
0.105	1.1856257E-006
0.1	1.3111634E-006
0.095	1.4494011E-006
0.09	1.6015908E-006
0.085	1.7691034E-006
0.08	1.9534399E-006
0.075	2.1562415E-006
0.07	2.3793023E-006
0.065	2.624581E-006
0.06	2.8942147E-006
0.055	3.1905321E-006
0.05	3.516068E-006
0.045	3.8735782E-006
0.04	4.2660545E-006
0.035	4.6967401E-006
0.03	5.1691451E-006
0.025	5.6870613E-006
0.02	6.254577E-006
0.015	6.8760907E-006
0.01	7.5563236E-006
0.005	8.3003305E-006
-3.76435E-016	9.113508E-006
-0.005	1.00016E-005
-0.01	1.0970702E-005
-0.015	1.2027256E-005
-0.02	1.3178045E-005
-0.025	1.4430184E-005
-0.03	1.5791098E-005
-0.035	1.7268498E-005
-0.04	1.8870351E-005
-0.045	2.0604837E-005
-0.05	2.2480303E-005
-0.055	2.4505211E-005
-0.06	2.6688068E-005
-0.065	2.9037362E-005
-0.07	3.1561486E-005
-0.075	3.4268653E-005
-0.08	3.7166815E-005
-0.085	4.0263577E-005
-0.09	4.3566111E-005
-0.095	4.7081072E-005
-0.1	5.0814517E-005
-0.105	5.4771838E-005
-0.11	5.895769E-005
-0.115	6.3375944E-005
-0.12	6.8029638E-005
-0.125	7.2920948E-005
-0.13	7.8051172E-005
-0.135	8.342072E-005
-0.14	8.9029124E-005
-0.145	9.4875054E-005
-0.15	0.00010095635
-0.155	0.00010727005
-0.16	0.00011381244
-0.165	0.00012057914
-0.17	0.00012756507
-0.175	0.00013476462
-0.18	0.00014217162
-0.185	0.00014977944
-0.19	0.00015758105
-0.195	0.00016556905
-0.2	0.00017373576
-0.205	0.00018207323
-0.21	0.0001905733
-0.215	0.00019922764
-0.22	0.0002080278
-0.225	0.0002169652
-0.23	0.0002260312
-0.235	0.00023521708
-0.24	0.00024451411
-0.245	0.00025391349
-0.25	0.00026340641
-0.255	0.00027298406
-0.26	0.00028263758
-0.265	0.00029235811
-0.27	0.00030213676
-0.275	0.00031196459
-0.28	0.00032183263
-0.285	0.00033173183
-0.29	0.00034165306
-0.295	0.00035158711
-0.3	0.00036152463
-0.305	0.0003714561
-0.31	0.00038137187
-0.315	0.00039126203
-0.32	0.00040111645
-0.325	0.00041092472
-0.33	0.00042067609
-0.335	0.00043035944
-0.34	0.00043996323
-0.345	0.00044947544
-0.35	0.00045888351
-0.355	0.00046817425
-0.36	0.00047733383
-0.365	0.00048634761
-0.37	0.00049520011
-0.375	0.00050387492
-0.38	0.00051235452
-0.385	0.00052062023
-0.39	0.00052865203
-0.395	0.00053642845
-0.4	0.00054392638
-0.405	0.00055112091
-0.41	0.00055798512
-0.415	0.00056448991
-0.42	0.00057060377
-0.425	0.00057629255
-0.43	0.00058151925
-0.435	0.00058624384
-0.44	0.00059042306
-0.445	0.00059401033
-0.45	0.00059695573
-0.455	0.0005992062
-0.46	0.00060070588
-0.465	0.00060139693
-0.47	0.00060122079
-0.475	0.00060012012
-0.48	0.00059804168
-0.485	0.00059494026
-0.49	0.00059078391
-0.495	0.00058556027
-0.5	0.00057928375
-0.495	0.00055119791
-0.49	0.00052976711
-0.485	0.00051163516
-0.48	0.00049518446
-0.475	0.00048008761
-0.47	0.0004662561
-0.465	0.0004534995
-0.46	0.00044159617
-0.455	0.00043037778
-0.45	0.00041973393
-0.445	0.00040958591
-0.44	0.00039986757
-0.435	0.00039051956
-0.43	0.0003814908
-0.425	0.00037273971
-0.42	0.00036423207
-0.415	0.00035593818
-0.41	0.000347832
-0.405	0.00033989125
-0.4	0.00033209703
-0.395	0.00032443306
-0.39	0.00031688512
-0.385	0.00030944096
-0.38	0.00030209009
-0.375	0.0002948236
-0.37	0.00028763389
-0.365	0.00028051457
-0.36	0.00027346033
-0.355	0.00026646685
-0.35	0.00025953071
-0.345	0.00025264929
-0.34	0.00024582071
-0.335	0.00023904377
-0.33	0.00023231788
-0.325	0.00022564304
-0.32	0.00021901975
-0.315	0.000212449
-0.31	0.00020593222
-0.305	0.00019947125
-0.3	0.00019306828
-0.295	0.00018672585
-0.29	0.00018044681
-0.285	0.00017423427
-0.28	0.00016809159
-0.275	0.00016202233
-0.27	0.00015603026
-0.265	0.00015011928
-0.26	0.00014429342
-0.255	0.00013855681
-0.25	0.00013291365
-0.245	0.00012736814
-0.24	0.00012192453
-0.235	0.00011658698
-0.23	0.00011135963
-0.225	0.00010624649
-0.22	0.00010125145
-0.215	9.6378211E-005
-0.21	9.1630287E-005
-0.205	8.701094E-005
-0.2	8.2523162E-005
-0.195	7.8169638E-005
-0.19	7.3952716E-005
-0.185	6.9874376E-005
-0.18	6.5936208E-005
-0.175	6.2139388E-005
-0.17	5.8484657E-005
-0.165	5.4972311E-005
-0.16	5.1602184E-005
-0.155	4.8373649E-005
-0.15	4.5285616E-005
-0.145	4.2336534E-005
-0.14	3.9524403E-005
-0.135	3.6846789E-005
-0.13	3.4300841E-005
-0.125	3.1883315E-005
-0.12	2.9590602E-005
-0.115	2.7418754E-005
-0.11	2.5363519E-005
-0.105	2.3420372E-005
-0.1	2.1584549E-005
-0.095	1.985108E-005
-0.09	1.8214825E-005
-0.085	1.6670501E-005
-0.08	1.5212715E-005
-0.075	1.383599E-005
-0.07	1.2534791E-005
-0.065	1.1303542E-005
-0.06	1.013665E-005
-0.055	9.0285143E-006
-0.05	7.9735411E-006
-0.045	6.9661491E-006
-0.04	6.0007742E-006
-0.035	5.0718712E-006
-0.03	4.1739109E-006
-0.025	3.3013764E-006
-0.02	2.4487552E-006
-0.015	1.6105304E-006
-0.01	7.8116946E-007
-0.005	-4.4888248E-008
-2.89699E-016	-8.7324494E-007
0.005	-1.7095587E-006
0.01	-2.5595579E-006
0.015	-3.4290555E-006
0.02	-4.3239626E-006
0.025	-5.2503006E-006
0.03	-6.2142122E-006
0.035	-7.2219696E-006
0.04	-8.2799802E-006
0.045	-9.3947889E-006
0.05	-1.0573076E-005
0.055	-1.1821651E-005
0.06	-1.3147442E-005
0.065	-1.4557477E-005
0.07	-1.6058863E-005
0.075	-1.7658756E-005
0.08	-1.9364323E-005
0.085	-2.1182704E-005
0.09	-2.3120958E-005
0.095	-2.5186014E-005
0.1	-2.7384607E-005
0.105	-2.9723211E-005
0.11	-3.2207977E-005
0.115	-3.4844656E-005
0.12	-3.7638531E-005
0.125	-4.0594343E-005
0.13	-4.3716221E-005
0.135	-4.7007621E-005
0.14	-5.047126E-005
0.145	-5.4109068E-005
0.15	-5.7922136E-005
0.155	-6.1910683E-005
0.16	-6.6074027E-005
0.165	-7.0410563E-005
0.17	-7.4917759E-005
0.175	-7.9592153E-005
0.18	-8.4429358E-005
0.185	-8.9424083E-005
0.19	-9.4570147E-005
0.195	-9.9860511E-005
0.2	-0.0001052873
0.205	-0.00011084185
0.21	-0.0001165147
0.215	-0.00012229568
0.22	-0.00012817389
0.225	-0.00013413774
0.23	-0.00014017497
0.235	-0.00014627268
0.24	-0.00015241731
0.245	-0.00015859467
0.25	-0.00016478989
0.255	-0.00017098749
0.26	-0.00017717125
0.265	-0.00018332427
0.27	-0.00018942889
0.275	-0.00019546666
0.28	-0.00020141828
0.285	-0.00020726354
0.29	-0.00021298125
0.295	-0.00021854919
0.3	-0.00022394399
0.305	-0.00022914112
0.31	-0.00023411473
0.315	-0.00023883768
0.32	-0.00024328142
0.325	-0.00024741598
0.33	-0.00025121
0.335	-0.00025463079
0.34	-0.00025764446
0.345	-0.0002602162
0.35	-0.00026231067
0.355	-0.00026389258
0.36	-0.00026492755
0.365	-0.0002653832
0.37	-0.00026523067
0.375	-0.00026444646
0.38	-0.00026301467
0.385	-0.00026092955
0.39	-0.00025819819
0.395	-0.00025484298
0.4	-0.00025090349
0.405	-0.00024643711
0.41	-0.00024151803
0.415	-0.00023623417
0.42	-0.00023068217
0.425	-0.00022496102
0.43	-0.00021916554
0.435	-0.00021338061
0.44	-0.00020767725
0.445	-0.00020211089
0.45	-0.00019672155
0.455	-0.00019153542
0.46	-0.00018656726
0.465	-0.00018182287
0.47	-0.00017730154
0.475	-0.00017299802
0.48	-0.00016890412
0.485	-0.00016500993
0.49	-0.00016130462
0.495	-0.00015777707
0.5	-0.00015441629
