simulated data
number of E (V), I (A) couples: 400
0.495	1.6744695E-011
0.49	4.277267E-012
0.485	9.5243387E-012
0.48	1.038985E-011
0.475	1.1916908E-011
0.47	1.4114806E-011
0.465	1.6937086E-011
0.46	2.0420196E-011
0.455	2.4674188E-011
0.45	2.9857178E-011
0.445	3.6167586E-011
0.44	4.3850235E-011
0.435	5.3199146E-011
0.43	6.4566171E-011
0.425	7.8381348E-011
0.42	9.5172166E-011
0.415	1.1557888E-010
0.41	1.4037668E-010
0.405	1.7050777E-010
0.4	2.0711856E-010
0.395	2.5160202E-010
0.39	3.0564986E-010
0.385	3.7131731E-010
0.38	4.511017E-010
0.375	5.4803731E-010
0.37	6.6581051E-010
0.365	8.0889993E-010
0.36	9.8274688E-010
0.355	1.1939622E-009
0.35	1.4505774E-009
0.345	1.7623504E-009
0.34	2.141136E-009
0.335	2.6013367E-009
0.33	3.1604498E-009
0.325	3.8397327E-009
0.32	4.6650103E-009
0.315	5.6676557E-009
0.31	6.8857823E-009
0.305	8.36569E-009
0.3	1.0163623E-008
0.295	1.2347904E-008
0.29	1.5001522E-008
0.285	1.8225282E-008
0.28	2.2141617E-008
0.275	2.6899224E-008
0.27	3.2678679E-008
0.265	3.9699258E-008
0.26	4.8227191E-008
0.255	5.8585683E-008
0.25	7.1167032E-008
0.245	8.644731E-008
0.24	1.050041E-007
0.235	1.2753796E-007
0.23	1.5489826E-007
0.225	1.8811436E-007
0.22	2.2843313E-007
0.215	2.7736389E-007
0.21	3.3673224E-007
0.205	4.0874432E-007
0.2	4.9606307E-007
0.195	6.0189843E-007
0.19	7.3011327E-007
0.185	8.8534703E-007
0.18	1.0731584E-006
0.175	1.3001883E-006
0.17	1.5743433E-006
0.165	1.9049975E-006
0.16	2.3032109E-006
0.155	2.7819553E-006
0.15	3.3563396E-006
0.145	4.0438182E-006
0.14	4.8643605E-006
0.135	5.8405586E-006
0.13	6.9976388E-006
0.125	8.3633473E-006
0.12	9.9676781E-006
0.115	1.1842421E-005
0.11	1.4020523E-005
0.105	1.653527E-005
0.1	1.941933E-005
0.095	2.2703716E-005
0.09	2.6416739E-005
0.085	3.0583044E-005
0.08	3.5222796E-005
0.075	4.0351089E-005
0.07	4.59776E-005
0.065	5.2106505E-005
0.06	5.8736632E-005
0.055	6.5861804E-005
0.05	7.3471331E-005
0.045	8.1550589E-005
0.04	9.0081632E-005
0.035	9.9043804E-005
0.03	0.00010841431
0.025	0.00011816873
0.02	0.00012828145
0.015	0.00013872604
0.01	0.00014947554
0.005	0.00016050266
-3.76435E-016	0.00017177992
-0.005	0.00018327976
-0.01	0.00019497459
-0.015	0.00020683669
-0.02	0.00021883824
-0.025	0.00023095119
-0.03	0.00024314709
-0.035	0.00025539698
-0.04	0.0002676711
-0.045	0.0002799387
-0.05	0.0002921677
-0.055	0.00030432435
-0.06	0.00031637283
-0.065	0.00032827472
-0.07	0.00033998846
-0.075	0.00035146865
-0.08	0.00036266523
-0.085	0.00037352253
-0.09	0.00038397806
-0.095	0.00039396112
-0.1	0.00040339117
-0.105	0.00041217578
-0.11	0.00042020837
-0.115	0.00042736558
-0.12	0.00043350451
-0.125	0.00043846009
-0.13	0.00044204343
-0.135	0.00044404252
-0.14	0.00044422823
-0.145	0.00044236997
-0.15	0.00043826791
-0.155	0.00043180819
-0.16	0.00042304051
-0.165	0.00041225536
-0.17	0.00040000648
-0.175	0.00038702043
-0.18	0.00037400863
-0.185	0.00036149843
-0.19	0.00034978524
-0.195	0.00033898303
-0.2	0.00032909355
-0.205	0.00032005832
-0.21	0.00031179375
-0.215	0.00030421236
-0.22	0.00029723258
-0.225	0.00029078202
-0.23	0.00028479771
-0.235	0.00027922543
-0.24	0.00027401864
-0.245	0.00026913745
-0.25	0.00026454757
-0.255	0.00026021942
-0.26	0.00025612743
-0.265	0.00025224941
-0.27	0.00024856598
-0.275	0.0002450602
-0.28	0.00024171714
-0.285	0.00023852363
-0.29	0.00023546797
-0.295	0.00023253975
-0.3	0.00022972965
-0.305	0.00022702934
-0.31	0.00022443128
-0.315	0.00022192868
-0.32	0.00021951538
-0.325	0.0002171858
-0.33	0.00021493482
-0.335	0.0002127578
-0.34	0.00021065047
-0.345	0.00020860892
-0.35	0.00020662955
-0.355	0.00020470905
-0.36	0.00020284435
-0.365	0.00020103263
-0.37	0.00019927126
-0.375	0.0001975578
-0.38	0.00019588999
-0.385	0.00019426572
-0.39	0.00019268302
-0.395	0.00019114007
-0.4	0.00018963513
-0.405	0.0001881666
-0.41	0.00018673298
-0.415	0.00018533283
-0.42	0.00018396483
-0.425	0.00018262772
-0.43	0.00018132032
-0.435	0.00018004151
-0.44	0.00017879022
-0.445	0.00017756547
-0.45	0.0001763663
-0.455	0.00017519181
-0.46	0.00017404115
-0.465	0.00017291352
-0.47	0.00017180813
-0.475	0.00017072425
-0.48	0.0001696612
-0.485	0.00016861829
-0.49	0.00016759489
-0.495	0.00016659039
-0.5	0.00016560422
-0.495	0.00016463564
-0.49	0.00016368446
-0.485	0.00016274996
-0.48	0.0001618317
-0.475	0.0001609292
-0.47	0.00016004202
-0.465	0.00015916972
-0.46	0.00015831188
-0.455	0.00015746811
-0.45	0.00015663801
-0.445	0.00015582121
-0.44	0.00015501736
-0.435	0.00015422612
-0.43	0.00015344714
-0.425	0.00015268012
-0.42	0.00015192474
-0.415	0.0001511807
-0.41	0.00015044771
-0.405	0.0001497255
-0.4	0.00014901378
-0.395	0.00014831231
-0.39	0.00014762082
-0.385	0.00014693907
-0.38	0.00014626682
-0.375	0.00014560382
-0.37	0.00014494986
-0.365	0.0001443047
-0.36	0.00014366813
-0.355	0.00014303992
-0.35	0.00014241987
-0.345	0.00014180775
-0.34	0.00014120335
-0.335	0.00014060646
-0.33	0.00014001685
-0.325	0.0001394343
-0.32	0.00013885857
-0.315	0.00013828943
-0.31	0.00013772662
-0.305	0.00013716985
-0.3	0.00013661884
-0.295	0.00013607326
-0.29	0.00013553275
-0.285	0.00013499689
-0.28	0.00013446525
-0.275	0.00013393728
-0.27	0.00013341239
-0.265	0.00013288988
-0.26	0.00013236892
-0.255	0.00013184856
-0.25	0.00013132766
-0.245	0.00013080488
-0.24	0.00013027861
-0.235	0.00012974695
-0.23	0.00012920765
-0.225	0.00012865798
-0.22	0.00012809473
-0.215	0.00012751405
-0.21	0.00012691135
-0.205	0.00012628117
-0.2	0.00012561702
-0.195	0.00012491124
-0.19	0.00012415476
-0.185	0.00012333694
-0.18	0.00012244535
-0.175	0.00012146554
-0.17	0.00012038089
-0.165	0.00011917241
-0.16	0.00011781863
-0.155	0.00011629564
-0.15	0.0001145771
-0.145	0.00011263454
-0.14	0.00011043772
-0.135	0.0001079552
-0.13	0.00010515507
-0.125	0.00010200585
-0.12	9.847739E-005
-0.115	9.4541878E-005
-0.11	9.0174753E-005
-0.105	8.53555E-005
-0.1	8.0068253E-005
-0.095	7.4302185E-005
-0.09	6.8051653E-005
-0.085	6.1316124E-005
-0.08	5.4099907E-005
-0.075	4.6411742E-005
-0.07	3.8264283E-005
-0.065	2.9673541E-005
-0.06	2.0658313E-005
-0.055	1.1239633E-005
-0.05	1.4402785E-006
-0.045	-8.715671E-006
-0.04	-1.9203197E-005
-0.035	-2.9996639E-005
-0.03	-4.1069925E-005
-0.025	-5.2396731E-005
-0.02	-6.3950588E-005
-0.015	-7.5704934E-005
-0.01	-8.7633117E-005
-0.005	-9.9708358E-005
-2.89699E-016	-0.00011190368
0.005	-0.00012419177
0.01	-0.00013654487
0.015	-0.00014893456
0.02	-0.00016133155
0.025	-0.0001737054
0.03	-0.00018602424
0.035	-0.00019825437
0.04	-0.00021035986
0.045	-0.00022230202
0.05	-0.00023403883
0.055	-0.00024552421
0.06	-0.00025670718
0.065	-0.00026753088
0.07	-0.0002779313
0.075	-0.00028783591
0.08	-0.00029716191
0.085	-0.00030581419
0.09	-0.00031368308
0.095	-0.00032064174
0.1	-0.00032654352
0.105	-0.00033121982
0.11	-0.00033447906
0.115	-0.00033610893
0.12	-0.0003358848
0.125	-0.00033358935
0.13	-0.00032905012
0.135	-0.00032219972
0.14	-0.00031315308
0.145	-0.00030227105
0.15	-0.00029015317
0.155	-0.00027751808
0.16	-0.0002650168
0.165	-0.00025309914
0.17	-0.00024199974
0.175	-0.00023179662
0.18	-0.00022247379
0.185	-0.00021396666
0.19	-0.00020619235
0.195	-0.00019906705
0.2	-0.0001925136
0.205	-0.00018646374
0.21	-0.00018085817
0.215	-0.00017564576
0.22	-0.0001707826
0.225	-0.00016623098
0.23	-0.00016195838
0.235	-0.00015793677
0.24	-0.00015414182
0.245	-0.00015055239
0.25	-0.00014715
0.255	-0.00014391844
0.26	-0.00014084345
0.265	-0.00013791237
0.27	-0.000135114
0.275	-0.00013243832
0.28	-0.00012987639
0.285	-0.00012742016
0.29	-0.00012506238
0.295	-0.00012279649
0.3	-0.00012061655
0.305	-0.00011851717
0.31	-0.0001164934
0.315	-0.00011454076
0.32	-0.00011265511
0.325	-0.00011083268
0.33	-0.00010906997
0.335	-0.00010736378
0.34	-0.00010571114
0.345	-0.00010410931
0.35	-0.00010255575
0.355	-0.0001010481
0.36	-9.9584153E-005
0.365	-9.8161875E-005
0.37	-9.6779357E-005
0.375	-9.5434817E-005
0.38	-9.4126588E-005
0.385	-9.285311E-005
0.39	-9.1612917E-005
0.395	-9.0404634E-005
0.4	-8.9226966E-005
0.405	-8.8078694E-005
0.41	-8.695867E-005
0.415	-8.5865808E-005
0.42	-8.4799083E-005
0.425	-8.3757524E-005
0.43	-8.2740212E-005
0.435	-8.1746276E-005
0.44	-8.0774889E-005
0.445	-7.9825264E-005
0.45	-7.8896654E-005
0.455	-7.7988347E-005
0.46	-7.7099666E-005
0.465	-7.6229964E-005
0.47	-7.5378624E-005
0.475	-7.4545056E-005
0.48	-7.3728698E-005
0.485	-7.2929011E-005
0.49	-7.2145479E-005
0.495	-7.1377609E-005
0.5	-7.0624926E-005
