simulated data
number of E (V), I (A) couples: 400
0.495	6.290649E-016
0.49	6.9340291E-016
0.485	7.6432287E-016
0.48	8.4249569E-016
0.475	9.2866113E-016
0.47	1.0236358E-015
0.465	1.1283204E-015
0.46	1.2437079E-015
0.455	1.3708926E-015
0.45	1.5110809E-015
0.445	1.6656023E-015
0.44	1.8359225E-015
0.435	2.0236568E-015
0.43	2.230586E-015
0.425	2.4586726E-015
0.42	2.71008E-015
0.415	2.9871929E-015
0.41	3.2926395E-015
0.405	3.629317E-015
0.4	4.0004187E-015
0.395	4.4094644E-015
0.39	4.8603339E-015
0.385	5.3573036E-015
0.38	5.9050872E-015
0.375	6.5088803E-015
0.37	7.1744099E-015
0.365	7.9079883E-015
0.36	8.7165734E-015
0.355	9.6078346E-015
0.35	1.0590225E-014
0.345	1.1673063E-014
0.34	1.2866619E-014
0.335	1.4182214E-014
0.33	1.5632325E-014
0.325	1.7230708E-014
0.32	1.8992521E-014
0.315	2.0934477E-014
0.31	2.3074993E-014
0.305	2.5434374E-014
0.3	2.8034995E-014
0.295	3.0901526E-014
0.29	3.4061153E-014
0.285	3.7543846E-014
0.28	4.1382637E-014
0.275	4.5613937E-014
0.27	5.0277879E-014
0.265	5.54187E-014
0.26	6.1085159E-014
0.255	6.7331003E-014
0.25	7.4215472E-014
0.245	8.1803864E-014
0.24	9.0168154E-014
0.235	9.9387676E-014
0.23	1.0954988E-013
0.225	1.2075114E-013
0.22	1.3309771E-013
0.215	1.467067E-013
0.21	1.6170717E-013
0.205	1.7824142E-013
0.2	1.9646626E-013
0.195	2.1655455E-013
0.19	2.3869683E-013
0.185	2.6310311E-013
0.18	2.9000489E-013
0.175	3.1965732E-013
0.17	3.5234166E-013
0.165	3.883679E-013
0.16	4.2807775E-013
0.155	4.7184786E-013
0.15	5.2009337E-013
0.145	5.732719E-013
0.14	6.3188782E-013
0.135	6.964971E-013
0.13	7.6771255E-013
0.125	8.4620965E-013
0.12	9.3273291E-013
0.115	1.028103E-012
0.11	1.1332245E-012
0.105	1.2490945E-012
0.1	1.3768119E-012
0.095	1.5175882E-012
0.09	1.6727586E-012
0.085	1.8437948E-012
0.08	2.0323192E-012
0.075	2.2401198E-012
0.07	2.4691676E-012
0.065	2.7216351E-012
0.06	2.9999169E-012
0.055	3.3066525E-012
0.05	3.6447512E-012
0.045	4.0174198E-012
0.04	4.428193E-012
0.035	4.8809669E-012
0.03	5.3800361E-012
0.025	5.9301341E-012
0.02	6.5364786E-012
0.015	7.2048205E-012
0.01	7.9414991E-012
0.005	8.7535017E-012
-3.76435E-016	9.6485299E-012
-0.005	1.0635073E-011
-0.01	1.1722488E-011
-0.015	1.2921089E-011
-0.02	1.4242245E-011
-0.025	1.5698486E-011
-0.03	1.7303625E-011
-0.035	1.9072886E-011
-0.04	2.1023051E-011
-0.045	2.3172617E-011
-0.05	2.5541971E-011
-0.055	2.8153586E-011
-0.06	3.1032235E-011
-0.065	3.4205219E-011
-0.07	3.7702635E-011
-0.075	4.1557654E-011
-0.08	4.5806842E-011
-0.085	5.04905E-011
-0.09	5.5653053E-011
-0.095	6.1343467E-011
-0.1	6.7615715E-011
-0.105	7.4529287E-011
-0.11	8.2149758E-011
-0.115	9.0549408E-011
-0.12	9.9807904E-011
-0.125	1.1001306E-010
-0.13	1.2126168E-010
-0.135	1.3366045E-010
-0.14	1.4732696E-010
-0.145	1.6239085E-010
-0.15	1.7899499E-010
-0.155	1.9729687E-010
-0.16	2.1747008E-010
-0.165	2.3970596E-010
-0.17	2.6421541E-010
-0.175	2.912309E-010
-0.18	3.2100868E-010
-0.185	3.5383117E-010
-0.19	3.900097E-010
-0.195	4.298874E-010
-0.2	4.7384252E-010
-0.205	5.2229196E-010
-0.21	5.7569525E-010
-0.215	6.3455892E-010
-0.22	6.9944128E-010
-0.225	7.7095772E-010
-0.23	8.4978657E-010
-0.235	9.366755E-010
-0.24	1.0324486E-009
-0.245	1.1380144E-009
-0.25	1.254374E-009
-0.255	1.3826311E-009
-0.26	1.5240022E-009
-0.265	1.6798282E-009
-0.27	1.8515871E-009
-0.275	2.0409079E-009
-0.28	2.2495863E-009
-0.285	2.4796017E-009
-0.29	2.7331355E-009
-0.295	3.0125926E-009
-0.3	3.3206234E-009
-0.305	3.6601496E-009
-0.31	4.0343916E-009
-0.315	4.4468987E-009
-0.32	4.9015836E-009
-0.325	5.4027588E-009
-0.33	5.9551778E-009
-0.335	6.5640799E-009
-0.34	7.2352404E-009
-0.345	7.975025E-009
-0.35	8.7904502E-009
-0.355	9.6892498E-009
-0.36	1.0679949E-008
-0.365	1.1771943E-008
-0.37	1.2975589E-008
-0.375	1.4302303E-008
-0.38	1.5764668E-008
-0.385	1.7376553E-008
-0.39	1.9153246E-008
-0.395	2.1111596E-008
-0.4	2.3270178E-008
-0.405	2.5649462E-008
-0.41	2.8272014E-008
-0.415	3.1162704E-008
-0.42	3.4348947E-008
-0.425	3.786096E-008
-0.43	4.1732048E-008
-0.435	4.5998922E-008
-0.44	5.0702043E-008
-0.445	5.5886011E-008
-0.45	6.1599984E-008
-0.455	6.7898142E-008
-0.46	7.4840206E-008
-0.465	8.2492E-008
-0.47	9.0926074E-008
-0.475	1.0022239E-007
-0.48	1.1046909E-007
-0.485	1.2176332E-007
-0.49	1.3421213E-007
-0.495	1.4793355E-007
-0.5	1.6305763E-007
-0.495	1.4793081E-007
-0.49	1.342078E-007
-0.485	1.2175808E-007
-0.48	1.1046337E-007
-0.475	1.0021647E-007
-0.47	9.0920143E-008
-0.465	8.2486207E-008
-0.46	7.4834646E-008
-0.455	6.7892873E-008
-0.45	6.159504E-008
-0.445	5.5881409E-008
-0.44	5.0697785E-008
-0.435	4.5995003E-008
-0.43	4.1728456E-008
-0.425	3.7857679E-008
-0.42	3.4345959E-008
-0.415	3.1159989E-008
-0.41	2.8269553E-008
-0.405	2.5647235E-008
-0.4	2.3268165E-008
-0.395	2.110978E-008
-0.39	1.9151609E-008
-0.385	1.7375078E-008
-0.38	1.5763341E-008
-0.375	1.430111E-008
-0.37	1.2974516E-008
-0.365	1.1770979E-008
-0.36	1.0679083E-008
-0.355	9.6884731E-009
-0.35	8.7897531E-009
-0.345	7.9743995E-009
-0.34	7.2346792E-009
-0.335	6.5635765E-009
-0.33	5.9547262E-009
-0.325	5.4023538E-009
-0.32	4.9012204E-009
-0.315	4.4465729E-009
-0.31	4.0340993E-009
-0.305	3.6598875E-009
-0.3	3.3203883E-009
-0.295	3.0123816E-009
-0.29	2.7329462E-009
-0.285	2.4794318E-009
-0.28	2.249434E-009
-0.275	2.0407712E-009
-0.27	1.8514643E-009
-0.265	1.679718E-009
-0.26	1.5239033E-009
-0.255	1.3825423E-009
-0.25	1.2542942E-009
-0.245	1.1379427E-009
-0.24	1.0323843E-009
-0.235	9.3661768E-010
-0.23	8.4973461E-010
-0.225	7.7091103E-010
-0.22	6.9939931E-010
-0.215	6.345212E-010
-0.21	5.7566134E-010
-0.205	5.2226146E-010
-0.2	4.7381509E-010
-0.195	4.2986273E-010
-0.19	3.899875E-010
-0.185	3.5381121E-010
-0.18	3.2099071E-010
-0.175	2.9121473E-010
-0.17	2.6420085E-010
-0.165	2.3969285E-010
-0.16	2.1745828E-010
-0.155	1.9728624E-010
-0.15	1.7898541E-010
-0.145	1.6238222E-010
-0.14	1.4731919E-010
-0.135	1.3365344E-010
-0.13	1.2125536E-010
-0.125	1.1000736E-010
-0.12	9.9802761E-011
-0.115	9.0544764E-011
-0.11	8.2145564E-011
-0.105	7.4525496E-011
-0.1	6.7612286E-011
-0.095	6.1340364E-011
-0.09	5.5650241E-011
-0.085	5.0487949E-011
-0.08	4.5804524E-011
-0.075	4.1555546E-011
-0.07	3.7700713E-011
-0.065	3.4203463E-011
-0.06	3.1030626E-011
-0.055	2.8152108E-011
-0.05	2.5540607E-011
-0.045	2.3171354E-011
-0.04	2.1021876E-011
-0.035	1.9071786E-011
-0.03	1.7302589E-011
-0.025	1.5697504E-011
-0.02	1.4241306E-011
-0.015	1.2920185E-011
-0.01	1.1721609E-011
-0.005	1.0634211E-011
-2.89699E-016	9.6476764E-012
0.005	8.7526486E-012
0.01	7.9406384E-012
0.015	7.203944E-012
0.02	6.5355781E-012
0.025	5.9292015E-012
0.03	5.3790627E-012
0.035	4.879944E-012
0.04	4.4271113E-012
0.045	4.0162697E-012
0.05	3.6435225E-012
0.055	3.3053343E-012
0.06	2.9984975E-012
0.065	2.720102E-012
0.07	2.4675073E-012
0.075	2.2383178E-012
0.08	2.0303596E-012
0.085	1.8416606E-012
0.09	1.6704309E-012
0.095	1.5150468E-012
0.1	1.3740346E-012
0.105	1.246057E-012
0.11	1.1299003E-012
0.115	1.024463E-012
0.12	9.2874524E-013
0.125	8.4183946E-013
0.13	7.6292163E-013
0.135	6.912435E-013
0.14	6.2612553E-013
0.145	5.6695045E-013
0.15	5.1315735E-013
0.155	4.6423644E-013
0.16	4.1972415E-013
0.165	3.7919878E-013
0.17	3.4227648E-013
0.175	3.0860764E-013
0.18	2.7787355E-013
0.185	2.4978338E-013
0.19	2.2407146E-013
0.195	2.0049474E-013
0.2	1.7883049E-013
0.205	1.5887422E-013
0.21	1.4043772E-013
0.215	1.2334727E-013
0.22	1.0744206E-013
0.225	9.2572624E-014
0.23	7.8599437E-014
0.235	6.5391629E-014
0.24	5.2825735E-014
0.245	4.0784548E-014
0.25	2.9156018E-014
0.255	1.7832209E-014
0.26	6.7082904E-015
0.265	-4.3184325E-015
0.27	-1.5349474E-014
0.275	-2.6486106E-014
0.28	-3.783029E-014
0.285	-4.948562E-014
0.29	-6.1558267E-014
0.295	-7.4157957E-014
0.3	-8.7398971E-014
0.305	-1.0140119E-013
0.31	-1.1629118E-013
0.315	-1.3220336E-013
0.32	-1.492812E-013
0.325	-1.6767853E-013
0.33	-1.8756095E-013
0.335	-2.0910731E-013
0.34	-2.3251133E-013
0.345	-2.5798338E-013
0.35	-2.8575234E-013
0.355	-3.1606769E-013
0.36	-3.4920178E-013
0.365	-3.8545225E-013
0.37	-4.2514478E-013
0.375	-4.6863597E-013
0.38	-5.163166E-013
0.385	-5.6861514E-013
0.39	-6.2600166E-013
0.395	-6.8899202E-013
0.4	-7.5815258E-013
0.405	-8.341053E-013
0.41	-9.1753336E-013
0.415	-1.0091874E-012
0.42	-1.1098921E-012
0.425	-1.2205539E-012
0.43	-1.3421691E-012
0.435	-1.4758329E-012
0.44	-1.622749E-012
0.445	-1.7842412E-012
0.45	-1.9617645E-012
0.455	-2.1569189E-012
0.46	-2.3714638E-012
0.465	-2.6073336E-012
0.47	-2.8666554E-012
0.475	-3.1517685E-012
0.48	-3.4652453E-012
0.485	-3.8099143E-012
0.49	-4.1888865E-012
0.495	-4.6055828E-012
0.5	-5.0637655E-012
